[Header]
Data File Name	D:\Praktikum\WS2020-2021\02122020\1-butanol_90°.gcd
Output Date	02.12.2020
Output Time	16:40:47

[File Information]
Type	Data File
Generated	02.12.2020 14:48:10
Generated by	GCMS
Modified	02.12.2020 14:48:10
Modified by	GCMS

[Sample Information]
Operator Name	GCMS
Acquisition Date	02.12.2020 14:44:13
Type	Unknown
Level	1
Sample Name	1-butanol_90°
Sample ID	1-butanol_90°
ISTD Amount1	1
ISTD Amount2	1
ISTD Amount3	1
ISTD Amount4	1
ISTD Amount5	1
ISTD Amount6	1
ISTD Amount7	1
ISTD Amount8	1
ISTD Amount9	1
ISTD Amount10	1
ISTD Amount11	1
ISTD Amount12	1
ISTD Amount13	1
ISTD Amount14	1
ISTD Amount15	1
ISTD Amount16	1
Sample Amount	1
Dilution Factor	1
Vial#	1
Injection Volume	0
Injection Count	0
Bar Code	

[Original Files]
Data File	D:\Praktikum\WS2020-2021\02122020\1-butanol_90°.gcd
Method File	D:\Praktikum\Alkohole GC-2014.gcm
Batch File	
Report Format File	D:\Praktikum\Praktikum.gcr

[File Comment]


[Configration]
Instrument Name	GC-2014
Instrument #	1
Line #	1

[Peak Table (Ch1)]
# of Peaks	2
Peak#	R.Time	I.Time	F.Time	Area	Height	A/H	Conc.	Mark	ID#	Name	k'	Plate #	Plate Ht.	Tailing	Resolution	Sep.Factor
1	0,651	0,481	1,200	3040	246	12,33	0,00000	   			0,000	71,796	0,000	1,795	0,000	0,000
2	3,110	2,544	3,893	75993	4056	18,73	0,00000	   			3,778	630,782	0,000	0,772	6,144	0,000

[Compound Results (Ch1)]
# of IDs	4
ID#	Name	R.Time	Area	Height	Conc.	Curve	3rd	2nd	1st	Constant
1	Luft	0,000	0	0	0,00000	Default					
2	Dreck	0,000	0	0	0,00000	Default					
3	Propanol	0,000	0	0	0,00000	Default					
4	Butanol	0,000	0	0	0,00000	Default					

[Group Results (Ch1)]
# of Groups	0

[Chromatogram (Ch1)]
Interval(msec)	40
# of Points	5840
Start Time(min)	0,001
End Time(min)	3,894
R.Time	Intensity
0,00050	-1
0,00117	-1
0,00183	-1
0,00250	-1
0,00317	-1
0,00383	-1
0,00450	-1
0,00517	-1
0,00583	-1
0,00650	-1
0,00717	-1
0,00783	-1
0,00850	-1
0,00917	-1
0,00983	-1
0,01050	-1
0,01117	-1
0,01183	-1
0,01250	-1
0,01317	-1
0,01383	-1
0,01450	-1
0,01517	-1
0,01583	-1
0,01650	-1
0,01717	-1
0,01783	-1
0,01850	-1
0,01917	-1
0,01983	-1
0,02050	-1
0,02117	-1
0,02183	-1
0,02250	-1
0,02317	-1
0,02383	-1
0,02450	-1
0,02517	-1
0,02583	-1
0,02650	-1
0,02717	-1
0,02783	-1
0,02850	-1
0,02917	-1
0,02983	-1
0,03050	-1
0,03117	-1
0,03183	-1
0,03250	-1
0,03317	-1
0,03383	-1
0,03450	-1
0,03517	-1
0,03583	-1
0,03650	-1
0,03717	-1
0,03783	-1
0,03850	-1
0,03917	-1
0,03983	-1
0,04050	-1
0,04117	-1
0,04183	-1
0,04250	-1
0,04317	-1
0,04383	-1
0,04450	-1
0,04517	-1
0,04583	-1
0,04650	-1
0,04717	-1
0,04783	-1
0,04850	-1
0,04917	-1
0,04983	-1
0,05050	-2
0,05117	-2
0,05183	-2
0,05250	-2
0,05317	-2
0,05383	-2
0,05450	-2
0,05517	-2
0,05583	-2
0,05650	-2
0,05717	-2
0,05783	-2
0,05850	-2
0,05917	-2
0,05983	-2
0,06050	-2
0,06117	-2
0,06183	-2
0,06250	-2
0,06317	-2
0,06383	-2
0,06450	-2
0,06517	-2
0,06583	-2
0,06650	-2
0,06717	-2
0,06783	-2
0,06850	-2
0,06917	-2
0,06983	-2
0,07050	-2
0,07117	-2
0,07183	-2
0,07250	-2
0,07317	-2
0,07383	-2
0,07450	-2
0,07517	-2
0,07583	-2
0,07650	-2
0,07717	-2
0,07783	-2
0,07850	-2
0,07917	-2
0,07983	-2
0,08050	-2
0,08117	-2
0,08183	-2
0,08250	-2
0,08317	-2
0,08383	-2
0,08450	-2
0,08517	-2
0,08583	-2
0,08650	-2
0,08717	-2
0,08783	-2
0,08850	-2
0,08917	-2
0,08983	-2
0,09050	-2
0,09117	-2
0,09183	-2
0,09250	-2
0,09317	-2
0,09383	-2
0,09450	-2
0,09517	-2
0,09583	-2
0,09650	-2
0,09717	-2
0,09783	-2
0,09850	-2
0,09917	-2
0,09983	-2
0,10050	-2
0,10117	-2
0,10183	-2
0,10250	-2
0,10317	-2
0,10383	-2
0,10450	-2
0,10517	-2
0,10583	-2
0,10650	-2
0,10717	-2
0,10783	-2
0,10850	-2
0,10917	-2
0,10983	-2
0,11050	-2
0,11117	-2
0,11183	-2
0,11250	-2
0,11317	-2
0,11383	-2
0,11450	-2
0,11517	-2
0,11583	-2
0,11650	-2
0,11717	-2
0,11783	-2
0,11850	-2
0,11917	-2
0,11983	-2
0,12050	-2
0,12117	-2
0,12183	-2
0,12250	-2
0,12317	-2
0,12383	-2
0,12450	-2
0,12517	-2
0,12583	-2
0,12650	-2
0,12717	-2
0,12783	-2
0,12850	-2
0,12917	-2
0,12983	-2
0,13050	-2
0,13117	-2
0,13183	-2
0,13250	-2
0,13317	-2
0,13383	-2
0,13450	-2
0,13517	-2
0,13583	-2
0,13650	-2
0,13717	-2
0,13783	-2
0,13850	-2
0,13917	-2
0,13983	-2
0,14050	-2
0,14117	-2
0,14183	-2
0,14250	-2
0,14317	-2
0,14383	-2
0,14450	-2
0,14517	-2
0,14583	-2
0,14650	-2
0,14717	-2
0,14783	-2
0,14850	-2
0,14917	-2
0,14983	-2
0,15050	-2
0,15117	-2
0,15183	-2
0,15250	-2
0,15317	-2
0,15383	-2
0,15450	-2
0,15517	-2
0,15583	-2
0,15650	-2
0,15717	-2
0,15783	-2
0,15850	-2
0,15917	-2
0,15983	-2
0,16050	-2
0,16117	-2
0,16183	-2
0,16250	-2
0,16317	-2
0,16383	-2
0,16450	-2
0,16517	-2
0,16583	-2
0,16650	-2
0,16717	-2
0,16783	-2
0,16850	-2
0,16917	-2
0,16983	-2
0,17050	-2
0,17117	-2
0,17183	-2
0,17250	-2
0,17317	-2
0,17383	-2
0,17450	-2
0,17517	-2
0,17583	-2
0,17650	-2
0,17717	-2
0,17783	-2
0,17850	-2
0,17917	-2
0,17983	-2
0,18050	-2
0,18117	-2
0,18183	-2
0,18250	-2
0,18317	-2
0,18383	-2
0,18450	-2
0,18517	-2
0,18583	-2
0,18650	-2
0,18717	-2
0,18783	-2
0,18850	-2
0,18917	-2
0,18983	-2
0,19050	-2
0,19117	-2
0,19183	-2
0,19250	-2
0,19317	-2
0,19383	-2
0,19450	-2
0,19517	-2
0,19583	-2
0,19650	-2
0,19717	-2
0,19783	-2
0,19850	-2
0,19917	-2
0,19983	-2
0,20050	-2
0,20117	-2
0,20183	-2
0,20250	-2
0,20317	-2
0,20383	-2
0,20450	-2
0,20517	-2
0,20583	-2
0,20650	-2
0,20717	-2
0,20783	-2
0,20850	-2
0,20917	-2
0,20983	-2
0,21050	-2
0,21117	-2
0,21183	-2
0,21250	-2
0,21317	-2
0,21383	-2
0,21450	-2
0,21517	-2
0,21583	-2
0,21650	-2
0,21717	-2
0,21783	-2
0,21850	-2
0,21917	-2
0,21983	-2
0,22050	-2
0,22117	-2
0,22183	-2
0,22250	-2
0,22317	-2
0,22383	-2
0,22450	-2
0,22517	-2
0,22583	-2
0,22650	-2
0,22717	-2
0,22783	-2
0,22850	-2
0,22917	-2
0,22983	-2
0,23050	-2
0,23117	-2
0,23183	-2
0,23250	-2
0,23317	-2
0,23383	-2
0,23450	-2
0,23517	-2
0,23583	-2
0,23650	-2
0,23717	-2
0,23783	-2
0,23850	-2
0,23917	-2
0,23983	-2
0,24050	-2
0,24117	-2
0,24183	-2
0,24250	-2
0,24317	-2
0,24383	-2
0,24450	-2
0,24517	-2
0,24583	-2
0,24650	-2
0,24717	-2
0,24783	-2
0,24850	-2
0,24917	-2
0,24983	-2
0,25050	-2
0,25117	-2
0,25183	-2
0,25250	-2
0,25317	-2
0,25383	-2
0,25450	-2
0,25517	-2
0,25583	-2
0,25650	-2
0,25717	-2
0,25783	-2
0,25850	-2
0,25917	-2
0,25983	-2
0,26050	-2
0,26117	-2
0,26183	-2
0,26250	-2
0,26317	-2
0,26383	-2
0,26450	-2
0,26517	-2
0,26583	-2
0,26650	-2
0,26717	-2
0,26783	-2
0,26850	-2
0,26917	-2
0,26983	-2
0,27050	-2
0,27117	-2
0,27183	-2
0,27250	-2
0,27317	-2
0,27383	-2
0,27450	-2
0,27517	-2
0,27583	-2
0,27650	-2
0,27717	-2
0,27783	-2
0,27850	-2
0,27917	-2
0,27983	-2
0,28050	-2
0,28117	-2
0,28183	-2
0,28250	-2
0,28317	-2
0,28383	-2
0,28450	-2
0,28517	-2
0,28583	-2
0,28650	-2
0,28717	-2
0,28783	-2
0,28850	-2
0,28917	-2
0,28983	-2
0,29050	-2
0,29117	-2
0,29183	-2
0,29250	-2
0,29317	-2
0,29383	-2
0,29450	-2
0,29517	-2
0,29583	-2
0,29650	-2
0,29717	-2
0,29783	-2
0,29850	-2
0,29917	-2
0,29983	-2
0,30050	-2
0,30117	-2
0,30183	-2
0,30250	-2
0,30317	-2
0,30383	-2
0,30450	-2
0,30517	-2
0,30583	-2
0,30650	-2
0,30717	-2
0,30783	-2
0,30850	-2
0,30917	-2
0,30983	-2
0,31050	-2
0,31117	-2
0,31183	-2
0,31250	-2
0,31317	-2
0,31383	-2
0,31450	-2
0,31517	-2
0,31583	-2
0,31650	-2
0,31717	-2
0,31783	-2
0,31850	-2
0,31917	-2
0,31983	-2
0,32050	-2
0,32117	-2
0,32183	-2
0,32250	-2
0,32317	-2
0,32383	-2
0,32450	-2
0,32517	-2
0,32583	-2
0,32650	-2
0,32717	-2
0,32783	-2
0,32850	-2
0,32917	-2
0,32983	-2
0,33050	-2
0,33117	-2
0,33183	-2
0,33250	-2
0,33317	-2
0,33383	-2
0,33450	-2
0,33517	-2
0,33583	-2
0,33650	-2
0,33717	-2
0,33783	-2
0,33850	-2
0,33917	-2
0,33983	-2
0,34050	-2
0,34117	-2
0,34183	-2
0,34250	-2
0,34317	-2
0,34383	-2
0,34450	-2
0,34517	-2
0,34583	-2
0,34650	-2
0,34717	-2
0,34783	-2
0,34850	-2
0,34917	-2
0,34983	-2
0,35050	-2
0,35117	-2
0,35183	-2
0,35250	-2
0,35317	-2
0,35383	-2
0,35450	-2
0,35517	-2
0,35583	-2
0,35650	-2
0,35717	-2
0,35783	-2
0,35850	-2
0,35917	-2
0,35983	-2
0,36050	-2
0,36117	-2
0,36183	-2
0,36250	-2
0,36317	-2
0,36383	-2
0,36450	-2
0,36517	-2
0,36583	-2
0,36650	-2
0,36717	-2
0,36783	-2
0,36850	-2
0,36917	-2
0,36983	-2
0,37050	-2
0,37117	-2
0,37183	-2
0,37250	-2
0,37317	-2
0,37383	-2
0,37450	-2
0,37517	-2
0,37583	-2
0,37650	-2
0,37717	-2
0,37783	-2
0,37850	-2
0,37917	-2
0,37983	-2
0,38050	-2
0,38117	-2
0,38183	-2
0,38250	-2
0,38317	-2
0,38383	-2
0,38450	-2
0,38517	-2
0,38583	-2
0,38650	-2
0,38717	-2
0,38783	-2
0,38850	-2
0,38917	-2
0,38983	-2
0,39050	-2
0,39117	-2
0,39183	-2
0,39250	-2
0,39317	-2
0,39383	-2
0,39450	-2
0,39517	-2
0,39583	-2
0,39650	-2
0,39717	-2
0,39783	-2
0,39850	-2
0,39917	-2
0,39983	-2
0,40050	-2
0,40117	-2
0,40183	-2
0,40250	-2
0,40317	-2
0,40383	-2
0,40450	-2
0,40517	-2
0,40583	-2
0,40650	-2
0,40717	-2
0,40783	-2
0,40850	-2
0,40917	-2
0,40983	-2
0,41050	-2
0,41117	-2
0,41183	-2
0,41250	-2
0,41317	-2
0,41383	-2
0,41450	-2
0,41517	-2
0,41583	-2
0,41650	-2
0,41717	-2
0,41783	-2
0,41850	-2
0,41917	-2
0,41983	-2
0,42050	-2
0,42117	-2
0,42183	-2
0,42250	-2
0,42317	-2
0,42383	-2
0,42450	-2
0,42517	-2
0,42583	-2
0,42650	-2
0,42717	-2
0,42783	-2
0,42850	-2
0,42917	-2
0,42983	-2
0,43050	-2
0,43117	-2
0,43183	-2
0,43250	-2
0,43317	-2
0,43383	-2
0,43450	-2
0,43517	-2
0,43583	-2
0,43650	-2
0,43717	-2
0,43783	-2
0,43850	-2
0,43917	-2
0,43983	-2
0,44050	-2
0,44117	-2
0,44183	-2
0,44250	-2
0,44317	-2
0,44383	-2
0,44450	-2
0,44517	-2
0,44583	-1
0,44650	-1
0,44717	-1
0,44783	-1
0,44850	-1
0,44917	-1
0,44983	-1
0,45050	-1
0,45117	-1
0,45183	-1
0,45250	-1
0,45317	-1
0,45383	-1
0,45450	-1
0,45517	-1
0,45583	-1
0,45650	-1
0,45717	-1
0,45783	-1
0,45850	-1
0,45917	-1
0,45983	-1
0,46050	-1
0,46117	-1
0,46183	-2
0,46250	-2
0,46317	-2
0,46383	-2
0,46450	-2
0,46517	-2
0,46583	-2
0,46650	-2
0,46717	-2
0,46783	-2
0,46850	-2
0,46917	-2
0,46983	-2
0,47050	-2
0,47117	-2
0,47183	-2
0,47250	-2
0,47317	-2
0,47383	-2
0,47450	-2
0,47517	-2
0,47583	-2
0,47650	-2
0,47717	-2
0,47783	-2
0,47850	-2
0,47917	-2
0,47983	-2
0,48050	-2
0,48117	-2
0,48183	-2
0,48250	-2
0,48317	-1
0,48383	-1
0,48450	-1
0,48517	-1
0,48583	-1
0,48650	-1
0,48717	-1
0,48783	-1
0,48850	-1
0,48917	-1
0,48983	-1
0,49050	-1
0,49117	-1
0,49183	-1
0,49250	-1
0,49317	-1
0,49383	-1
0,49450	-1
0,49517	-1
0,49583	-1
0,49650	-1
0,49717	-1
0,49783	-1
0,49850	-1
0,49917	-1
0,49983	-0
0,50050	-0
0,50117	-0
0,50183	-0
0,50250	0
0,50317	0
0,50383	0
0,50450	0
0,50517	1
0,50583	1
0,50650	1
0,50717	1
0,50783	1
0,50850	1
0,50917	2
0,50983	2
0,51050	2
0,51117	2
0,51183	3
0,51250	3
0,51317	3
0,51383	4
0,51450	4
0,51517	4
0,51583	5
0,51650	5
0,51717	5
0,51783	6
0,51850	6
0,51917	7
0,51983	7
0,52050	7
0,52117	8
0,52183	8
0,52250	9
0,52317	10
0,52383	10
0,52450	11
0,52517	11
0,52583	12
0,52650	13
0,52717	13
0,52783	14
0,52850	15
0,52917	15
0,52983	16
0,53050	17
0,53117	18
0,53183	19
0,53250	19
0,53317	20
0,53383	21
0,53450	22
0,53517	23
0,53583	24
0,53650	25
0,53717	26
0,53783	27
0,53850	28
0,53917	29
0,53983	30
0,54050	31
0,54117	33
0,54183	34
0,54250	35
0,54317	36
0,54383	37
0,54450	39
0,54517	40
0,54583	41
0,54650	43
0,54717	44
0,54783	45
0,54850	47
0,54917	48
0,54983	50
0,55050	51
0,55117	53
0,55183	54
0,55250	56
0,55317	57
0,55383	59
0,55450	60
0,55517	62
0,55583	63
0,55650	65
0,55717	67
0,55783	68
0,55850	70
0,55917	72
0,55983	73
0,56050	75
0,56117	77
0,56183	78
0,56250	80
0,56317	82
0,56383	84
0,56450	86
0,56517	87
0,56583	89
0,56650	91
0,56717	93
0,56783	95
0,56850	96
0,56917	98
0,56983	100
0,57050	102
0,57117	104
0,57183	106
0,57250	108
0,57317	109
0,57383	111
0,57450	113
0,57517	115
0,57583	117
0,57650	119
0,57717	121
0,57783	123
0,57850	124
0,57917	126
0,57983	128
0,58050	130
0,58117	132
0,58183	134
0,58250	136
0,58317	138
0,58383	139
0,58450	141
0,58517	143
0,58583	145
0,58650	147
0,58717	149
0,58783	151
0,58850	152
0,58917	154
0,58983	156
0,59050	158
0,59117	160
0,59183	161
0,59250	163
0,59317	165
0,59383	167
0,59450	168
0,59517	170
0,59583	172
0,59650	173
0,59717	175
0,59783	177
0,59850	178
0,59917	180
0,59983	182
0,60050	183
0,60117	185
0,60183	186
0,60250	188
0,60317	190
0,60383	191
0,60450	193
0,60517	194
0,60583	196
0,60650	197
0,60717	198
0,60783	200
0,60850	201
0,60917	203
0,60983	204
0,61050	205
0,61117	207
0,61183	208
0,61250	209
0,61317	211
0,61383	212
0,61450	213
0,61517	214
0,61583	215
0,61650	217
0,61717	218
0,61783	219
0,61850	220
0,61917	221
0,61983	222
0,62050	223
0,62117	224
0,62183	225
0,62250	226
0,62317	227
0,62383	228
0,62450	229
0,62517	229
0,62583	230
0,62650	231
0,62717	232
0,62783	233
0,62850	233
0,62917	234
0,62983	235
0,63050	235
0,63117	236
0,63183	237
0,63250	237
0,63317	238
0,63383	239
0,63450	239
0,63517	240
0,63583	240
0,63650	241
0,63717	241
0,63783	241
0,63850	242
0,63917	242
0,63983	243
0,64050	243
0,64117	243
0,64183	243
0,64250	244
0,64317	244
0,64383	244
0,64450	244
0,64517	245
0,64583	245
0,64650	245
0,64717	245
0,64783	245
0,64850	245
0,64917	245
0,64983	245
0,65050	245
0,65117	245
0,65183	245
0,65250	245
0,65317	245
0,65383	245
0,65450	245
0,65517	245
0,65583	245
0,65650	245
0,65717	245
0,65783	244
0,65850	244
0,65917	244
0,65983	244
0,66050	243
0,66117	243
0,66183	243
0,66250	242
0,66317	242
0,66383	242
0,66450	241
0,66517	241
0,66583	241
0,66650	240
0,66717	240
0,66783	239
0,66850	239
0,66917	238
0,66983	238
0,67050	237
0,67117	237
0,67183	236
0,67250	236
0,67317	235
0,67383	235
0,67450	234
0,67517	233
0,67583	233
0,67650	232
0,67717	231
0,67783	231
0,67850	230
0,67917	229
0,67983	229
0,68050	228
0,68117	227
0,68183	227
0,68250	226
0,68317	225
0,68383	224
0,68450	224
0,68517	223
0,68583	222
0,68650	221
0,68717	221
0,68783	220
0,68850	219
0,68917	218
0,68983	217
0,69050	217
0,69117	216
0,69183	215
0,69250	214
0,69317	213
0,69383	212
0,69450	211
0,69517	211
0,69583	210
0,69650	209
0,69717	208
0,69783	207
0,69850	206
0,69917	205
0,69983	204
0,70050	203
0,70117	202
0,70183	202
0,70250	201
0,70317	200
0,70383	199
0,70450	198
0,70517	197
0,70583	196
0,70650	195
0,70717	194
0,70783	193
0,70850	192
0,70917	191
0,70983	190
0,71050	189
0,71117	188
0,71183	187
0,71250	186
0,71317	185
0,71383	184
0,71450	183
0,71517	182
0,71583	181
0,71650	180
0,71717	179
0,71783	178
0,71850	177
0,71917	176
0,71983	175
0,72050	174
0,72117	174
0,72183	173
0,72250	172
0,72317	171
0,72383	170
0,72450	169
0,72517	168
0,72583	167
0,72650	166
0,72717	165
0,72783	164
0,72850	163
0,72917	162
0,72983	161
0,73050	160
0,73117	159
0,73183	158
0,73250	157
0,73317	156
0,73383	155
0,73450	154
0,73517	153
0,73583	152
0,73650	151
0,73717	150
0,73783	150
0,73850	149
0,73917	148
0,73983	147
0,74050	146
0,74117	145
0,74183	144
0,74250	143
0,74317	142
0,74383	141
0,74450	140
0,74517	140
0,74583	139
0,74650	138
0,74717	137
0,74783	136
0,74850	135
0,74917	134
0,74983	133
0,75050	132
0,75117	132
0,75183	131
0,75250	130
0,75317	129
0,75383	128
0,75450	127
0,75517	127
0,75583	126
0,75650	125
0,75717	124
0,75783	123
0,75850	122
0,75917	122
0,75983	121
0,76050	120
0,76117	119
0,76183	118
0,76250	118
0,76317	117
0,76383	116
0,76450	115
0,76517	114
0,76583	114
0,76650	113
0,76717	112
0,76783	111
0,76850	111
0,76917	110
0,76983	109
0,77050	108
0,77117	108
0,77183	107
0,77250	106
0,77317	105
0,77383	105
0,77450	104
0,77517	103
0,77583	103
0,77650	102
0,77717	101
0,77783	100
0,77850	100
0,77917	99
0,77983	98
0,78050	98
0,78117	97
0,78183	96
0,78250	96
0,78317	95
0,78383	94
0,78450	94
0,78517	93
0,78583	92
0,78650	92
0,78717	91
0,78783	90
0,78850	90
0,78917	89
0,78983	89
0,79050	88
0,79117	87
0,79183	87
0,79250	86
0,79317	86
0,79383	85
0,79450	84
0,79517	84
0,79583	83
0,79650	83
0,79717	82
0,79783	81
0,79850	81
0,79917	80
0,79983	80
0,80050	79
0,80117	79
0,80183	78
0,80250	77
0,80317	77
0,80383	76
0,80450	76
0,80517	75
0,80583	75
0,80650	74
0,80717	74
0,80783	73
0,80850	73
0,80917	72
0,80983	72
0,81050	71
0,81117	71
0,81183	70
0,81250	70
0,81317	69
0,81383	69
0,81450	68
0,81517	68
0,81583	67
0,81650	67
0,81717	66
0,81783	66
0,81850	65
0,81917	65
0,81983	65
0,82050	64
0,82117	64
0,82183	63
0,82250	63
0,82317	62
0,82383	62
0,82450	62
0,82517	61
0,82583	61
0,82650	60
0,82717	60
0,82783	59
0,82850	59
0,82917	59
0,82983	58
0,83050	58
0,83117	57
0,83183	57
0,83250	57
0,83317	56
0,83383	56
0,83450	55
0,83517	55
0,83583	55
0,83650	54
0,83717	54
0,83783	54
0,83850	53
0,83917	53
0,83983	52
0,84050	52
0,84117	52
0,84183	51
0,84250	51
0,84317	51
0,84383	50
0,84450	50
0,84517	50
0,84583	49
0,84650	49
0,84717	49
0,84783	48
0,84850	48
0,84917	48
0,84983	47
0,85050	47
0,85117	47
0,85183	46
0,85250	46
0,85317	46
0,85383	45
0,85450	45
0,85517	45
0,85583	44
0,85650	44
0,85717	44
0,85783	43
0,85850	43
0,85917	43
0,85983	43
0,86050	42
0,86117	42
0,86183	42
0,86250	41
0,86317	41
0,86383	41
0,86450	41
0,86517	40
0,86583	40
0,86650	40
0,86717	39
0,86783	39
0,86850	39
0,86917	39
0,86983	38
0,87050	38
0,87117	38
0,87183	37
0,87250	37
0,87317	37
0,87383	37
0,87450	36
0,87517	36
0,87583	36
0,87650	36
0,87717	35
0,87783	35
0,87850	35
0,87917	35
0,87983	34
0,88050	34
0,88117	34
0,88183	34
0,88250	34
0,88317	33
0,88383	33
0,88450	33
0,88517	33
0,88583	32
0,88650	32
0,88717	32
0,88783	32
0,88850	31
0,88917	31
0,88983	31
0,89050	31
0,89117	31
0,89183	30
0,89250	30
0,89317	30
0,89383	30
0,89450	30
0,89517	29
0,89583	29
0,89650	29
0,89717	29
0,89783	29
0,89850	28
0,89917	28
0,89983	28
0,90050	28
0,90117	28
0,90183	27
0,90250	27
0,90317	27
0,90383	27
0,90450	27
0,90517	26
0,90583	26
0,90650	26
0,90717	26
0,90783	26
0,90850	25
0,90917	25
0,90983	25
0,91050	25
0,91117	25
0,91183	25
0,91250	24
0,91317	24
0,91383	24
0,91450	24
0,91517	24
0,91583	24
0,91650	23
0,91717	23
0,91783	23
0,91850	23
0,91917	23
0,91983	23
0,92050	22
0,92117	22
0,92183	22
0,92250	22
0,92317	22
0,92383	22
0,92450	21
0,92517	21
0,92583	21
0,92650	21
0,92717	21
0,92783	21
0,92850	21
0,92917	20
0,92983	20
0,93050	20
0,93117	20
0,93183	20
0,93250	20
0,93317	19
0,93383	19
0,93450	19
0,93517	19
0,93583	19
0,93650	19
0,93717	19
0,93783	19
0,93850	18
0,93917	18
0,93983	18
0,94050	18
0,94117	18
0,94183	18
0,94250	18
0,94317	18
0,94383	17
0,94450	17
0,94517	17
0,94583	17
0,94650	17
0,94717	17
0,94783	17
0,94850	17
0,94917	16
0,94983	16
0,95050	16
0,95117	16
0,95183	16
0,95250	16
0,95317	16
0,95383	16
0,95450	16
0,95517	15
0,95583	15
0,95650	15
0,95717	15
0,95783	15
0,95850	15
0,95917	15
0,95983	15
0,96050	15
0,96117	14
0,96183	14
0,96250	14
0,96317	14
0,96383	14
0,96450	14
0,96517	14
0,96583	14
0,96650	14
0,96717	14
0,96783	13
0,96850	13
0,96917	13
0,96983	13
0,97050	13
0,97117	13
0,97183	13
0,97250	13
0,97317	13
0,97383	13
0,97450	12
0,97517	12
0,97583	12
0,97650	12
0,97717	12
0,97783	12
0,97850	12
0,97917	12
0,97983	12
0,98050	12
0,98117	11
0,98183	11
0,98250	11
0,98317	11
0,98383	11
0,98450	11
0,98517	11
0,98583	11
0,98650	11
0,98717	11
0,98783	11
0,98850	11
0,98917	10
0,98983	10
0,99050	10
0,99117	10
0,99183	10
0,99250	10
0,99317	10
0,99383	10
0,99450	10
0,99517	10
0,99583	10
0,99650	10
0,99717	10
0,99783	10
0,99850	9
0,99917	9
0,99983	9
1,00050	9
1,00117	9
1,00183	9
1,00250	9
1,00317	9
1,00383	9
1,00450	9
1,00517	9
1,00583	9
1,00650	9
1,00717	9
1,00783	9
1,00850	8
1,00917	8
1,00983	8
1,01050	8
1,01117	8
1,01183	8
1,01250	8
1,01317	8
1,01383	8
1,01450	8
1,01517	8
1,01583	8
1,01650	8
1,01717	8
1,01783	7
1,01850	7
1,01917	7
1,01983	7
1,02050	7
1,02117	7
1,02183	7
1,02250	7
1,02317	7
1,02383	7
1,02450	7
1,02517	7
1,02583	7
1,02650	7
1,02717	7
1,02783	6
1,02850	6
1,02917	6
1,02983	6
1,03050	6
1,03117	6
1,03183	6
1,03250	6
1,03317	6
1,03383	6
1,03450	6
1,03517	6
1,03583	6
1,03650	6
1,03717	6
1,03783	6
1,03850	6
1,03917	6
1,03983	6
1,04050	5
1,04117	5
1,04183	5
1,04250	5
1,04317	5
1,04383	5
1,04450	5
1,04517	5
1,04583	5
1,04650	5
1,04717	5
1,04783	5
1,04850	5
1,04917	5
1,04983	5
1,05050	5
1,05117	5
1,05183	5
1,05250	5
1,05317	5
1,05383	5
1,05450	5
1,05517	5
1,05583	5
1,05650	5
1,05717	5
1,05783	5
1,05850	4
1,05917	4
1,05983	4
1,06050	4
1,06117	4
1,06183	4
1,06250	4
1,06317	4
1,06383	4
1,06450	4
1,06517	4
1,06583	4
1,06650	4
1,06717	4
1,06783	4
1,06850	4
1,06917	4
1,06983	4
1,07050	4
1,07117	4
1,07183	4
1,07250	4
1,07317	4
1,07383	4
1,07450	4
1,07517	4
1,07583	4
1,07650	4
1,07717	4
1,07783	4
1,07850	4
1,07917	4
1,07983	4
1,08050	4
1,08117	3
1,08183	3
1,08250	3
1,08317	3
1,08383	3
1,08450	3
1,08517	3
1,08583	3
1,08650	3
1,08717	3
1,08783	3
1,08850	3
1,08917	3
1,08983	3
1,09050	3
1,09117	3
1,09183	3
1,09250	3
1,09317	3
1,09383	3
1,09450	3
1,09517	3
1,09583	3
1,09650	3
1,09717	3
1,09783	3
1,09850	3
1,09917	3
1,09983	3
1,10050	3
1,10117	3
1,10183	3
1,10250	3
1,10317	3
1,10383	3
1,10450	3
1,10517	3
1,10583	2
1,10650	2
1,10717	2
1,10783	2
1,10850	2
1,10917	2
1,10983	2
1,11050	2
1,11117	2
1,11183	2
1,11250	2
1,11317	2
1,11383	2
1,11450	2
1,11517	2
1,11583	2
1,11650	2
1,11717	2
1,11783	2
1,11850	2
1,11917	2
1,11983	2
1,12050	2
1,12117	2
1,12183	2
1,12250	2
1,12317	2
1,12383	2
1,12450	2
1,12517	2
1,12583	2
1,12650	2
1,12717	2
1,12783	2
1,12850	2
1,12917	2
1,12983	2
1,13050	2
1,13117	1
1,13183	1
1,13250	1
1,13317	1
1,13383	1
1,13450	1
1,13517	1
1,13583	1
1,13650	1
1,13717	1
1,13783	1
1,13850	1
1,13917	1
1,13983	1
1,14050	1
1,14117	1
1,14183	1
1,14250	1
1,14317	1
1,14383	1
1,14450	1
1,14517	1
1,14583	1
1,14650	1
1,14717	1
1,14783	1
1,14850	1
1,14917	1
1,14983	1
1,15050	1
1,15117	1
1,15183	1
1,15250	1
1,15317	1
1,15383	1
1,15450	1
1,15517	1
1,15583	1
1,15650	1
1,15717	1
1,15783	1
1,15850	1
1,15917	1
1,15983	1
1,16050	1
1,16117	1
1,16183	1
1,16250	1
1,16317	1
1,16383	1
1,16450	1
1,16517	1
1,16583	1
1,16650	0
1,16717	0
1,16783	0
1,16850	0
1,16917	0
1,16983	0
1,17050	0
1,17117	0
1,17183	0
1,17250	0
1,17317	0
1,17383	0
1,17450	0
1,17517	0
1,17583	0
1,17650	0
1,17717	0
1,17783	0
1,17850	0
1,17917	0
1,17983	0
1,18050	0
1,18117	0
1,18183	0
1,18250	0
1,18317	0
1,18383	0
1,18450	0
1,18517	0
1,18583	0
1,18650	0
1,18717	0
1,18783	0
1,18850	0
1,18917	0
1,18983	0
1,19050	0
1,19117	0
1,19183	0
1,19250	0
1,19317	0
1,19383	0
1,19450	0
1,19517	0
1,19583	0
1,19650	0
1,19717	0
1,19783	0
1,19850	0
1,19917	0
1,19983	0
1,20050	0
1,20117	0
1,20183	0
1,20250	0
1,20317	0
1,20383	0
1,20450	0
1,20517	0
1,20583	0
1,20650	0
1,20717	0
1,20783	0
1,20850	0
1,20917	0
1,20983	0
1,21050	0
1,21117	0
1,21183	0
1,21250	0
1,21317	0
1,21383	0
1,21450	0
1,21517	0
1,21583	0
1,21650	0
1,21717	0
1,21783	0
1,21850	0
1,21917	-0
1,21983	-0
1,22050	-0
1,22117	-0
1,22183	-0
1,22250	-0
1,22317	-0
1,22383	-0
1,22450	-0
1,22517	-0
1,22583	-0
1,22650	-0
1,22717	-0
1,22783	-0
1,22850	-0
1,22917	-0
1,22983	-0
1,23050	-0
1,23117	-0
1,23183	-0
1,23250	-0
1,23317	-0
1,23383	-0
1,23450	-0
1,23517	-0
1,23583	-0
1,23650	-0
1,23717	-0
1,23783	-0
1,23850	-0
1,23917	-0
1,23983	-0
1,24050	-0
1,24117	-0
1,24183	-0
1,24250	-0
1,24317	-0
1,24383	-0
1,24450	-0
1,24517	-0
1,24583	-0
1,24650	-0
1,24717	-0
1,24783	-1
1,24850	-1
1,24917	-1
1,24983	-1
1,25050	-1
1,25117	-1
1,25183	-1
1,25250	-1
1,25317	-1
1,25383	-1
1,25450	-1
1,25517	-1
1,25583	-1
1,25650	-1
1,25717	-1
1,25783	-1
1,25850	-1
1,25917	-1
1,25983	-1
1,26050	-1
1,26117	-1
1,26183	-1
1,26250	-1
1,26317	-1
1,26383	-1
1,26450	-1
1,26517	-1
1,26583	-1
1,26650	-1
1,26717	-1
1,26783	-1
1,26850	-1
1,26917	-1
1,26983	-1
1,27050	-1
1,27117	-1
1,27183	-1
1,27250	-1
1,27317	-1
1,27383	-1
1,27450	-1
1,27517	-1
1,27583	-1
1,27650	-1
1,27717	-1
1,27783	-1
1,27850	-1
1,27917	-1
1,27983	-1
1,28050	-1
1,28117	-1
1,28183	-1
1,28250	-1
1,28317	-1
1,28383	-1
1,28450	-1
1,28517	-1
1,28583	-1
1,28650	-1
1,28717	-1
1,28783	-1
1,28850	-1
1,28917	-1
1,28983	-1
1,29050	-1
1,29117	-1
1,29183	-1
1,29250	-1
1,29317	-1
1,29383	-1
1,29450	-1
1,29517	-1
1,29583	-1
1,29650	-1
1,29717	-1
1,29783	-1
1,29850	-1
1,29917	-1
1,29983	-1
1,30050	-1
1,30117	-1
1,30183	-1
1,30250	-1
1,30317	-1
1,30383	-1
1,30450	-1
1,30517	-1
1,30583	-1
1,30650	-1
1,30717	-1
1,30783	-1
1,30850	-1
1,30917	-1
1,30983	-1
1,31050	-1
1,31117	-1
1,31183	-1
1,31250	-1
1,31317	-1
1,31383	-1
1,31450	-1
1,31517	-1
1,31583	-1
1,31650	-1
1,31717	-1
1,31783	-1
1,31850	-1
1,31917	-1
1,31983	-1
1,32050	-1
1,32117	-1
1,32183	-1
1,32250	-1
1,32317	-1
1,32383	-1
1,32450	-1
1,32517	-1
1,32583	-1
1,32650	-1
1,32717	-1
1,32783	-1
1,32850	-1
1,32917	-1
1,32983	-1
1,33050	-1
1,33117	-1
1,33183	-1
1,33250	-1
1,33317	-1
1,33383	-1
1,33450	-1
1,33517	-1
1,33583	-1
1,33650	-1
1,33717	-1
1,33783	-1
1,33850	-1
1,33917	-1
1,33983	-1
1,34050	-1
1,34117	-1
1,34183	-1
1,34250	-1
1,34317	-1
1,34383	-1
1,34450	-1
1,34517	-1
1,34583	-2
1,34650	-2
1,34717	-2
1,34783	-2
1,34850	-2
1,34917	-2
1,34983	-2
1,35050	-2
1,35117	-2
1,35183	-2
1,35250	-2
1,35317	-2
1,35383	-2
1,35450	-2
1,35517	-2
1,35583	-2
1,35650	-2
1,35717	-2
1,35783	-2
1,35850	-2
1,35917	-2
1,35983	-2
1,36050	-2
1,36117	-2
1,36183	-2
1,36250	-2
1,36317	-2
1,36383	-2
1,36450	-2
1,36517	-2
1,36583	-2
1,36650	-2
1,36717	-2
1,36783	-2
1,36850	-2
1,36917	-2
1,36983	-2
1,37050	-2
1,37117	-2
1,37183	-2
1,37250	-2
1,37317	-2
1,37383	-2
1,37450	-2
1,37517	-2
1,37583	-2
1,37650	-2
1,37717	-2
1,37783	-2
1,37850	-2
1,37917	-2
1,37983	-2
1,38050	-2
1,38117	-2
1,38183	-2
1,38250	-2
1,38317	-2
1,38383	-2
1,38450	-2
1,38517	-2
1,38583	-2
1,38650	-2
1,38717	-2
1,38783	-2
1,38850	-2
1,38917	-2
1,38983	-2
1,39050	-2
1,39117	-2
1,39183	-2
1,39250	-2
1,39317	-2
1,39383	-2
1,39450	-2
1,39517	-2
1,39583	-2
1,39650	-2
1,39717	-2
1,39783	-2
1,39850	-2
1,39917	-2
1,39983	-2
1,40050	-2
1,40117	-2
1,40183	-2
1,40250	-2
1,40317	-2
1,40383	-2
1,40450	-2
1,40517	-2
1,40583	-2
1,40650	-2
1,40717	-2
1,40783	-2
1,40850	-2
1,40917	-2
1,40983	-2
1,41050	-2
1,41117	-2
1,41183	-2
1,41250	-2
1,41317	-2
1,41383	-2
1,41450	-2
1,41517	-2
1,41583	-2
1,41650	-2
1,41717	-2
1,41783	-2
1,41850	-2
1,41917	-2
1,41983	-2
1,42050	-2
1,42117	-2
1,42183	-2
1,42250	-2
1,42317	-2
1,42383	-2
1,42450	-2
1,42517	-2
1,42583	-2
1,42650	-2
1,42717	-2
1,42783	-2
1,42850	-2
1,42917	-2
1,42983	-2
1,43050	-2
1,43117	-2
1,43183	-2
1,43250	-2
1,43317	-2
1,43383	-2
1,43450	-2
1,43517	-2
1,43583	-2
1,43650	-2
1,43717	-2
1,43783	-2
1,43850	-2
1,43917	-2
1,43983	-2
1,44050	-2
1,44117	-2
1,44183	-2
1,44250	-2
1,44317	-2
1,44383	-2
1,44450	-2
1,44517	-2
1,44583	-2
1,44650	-2
1,44717	-2
1,44783	-2
1,44850	-2
1,44917	-2
1,44983	-2
1,45050	-2
1,45117	-2
1,45183	-2
1,45250	-2
1,45317	-2
1,45383	-2
1,45450	-2
1,45517	-2
1,45583	-2
1,45650	-2
1,45717	-2
1,45783	-2
1,45850	-2
1,45917	-2
1,45983	-2
1,46050	-2
1,46117	-2
1,46183	-2
1,46250	-2
1,46317	-2
1,46383	-2
1,46450	-2
1,46517	-2
1,46583	-2
1,46650	-2
1,46717	-2
1,46783	-2
1,46850	-2
1,46917	-2
1,46983	-2
1,47050	-2
1,47117	-2
1,47183	-2
1,47250	-2
1,47317	-2
1,47383	-2
1,47450	-2
1,47517	-2
1,47583	-2
1,47650	-2
1,47717	-2
1,47783	-2
1,47850	-2
1,47917	-2
1,47983	-2
1,48050	-2
1,48117	-2
1,48183	-2
1,48250	-2
1,48317	-2
1,48383	-2
1,48450	-2
1,48517	-2
1,48583	-2
1,48650	-2
1,48717	-2
1,48783	-2
1,48850	-2
1,48917	-2
1,48983	-2
1,49050	-2
1,49117	-2
1,49183	-2
1,49250	-2
1,49317	-2
1,49383	-2
1,49450	-2
1,49517	-2
1,49583	-2
1,49650	-2
1,49717	-2
1,49783	-2
1,49850	-2
1,49917	-2
1,49983	-2
1,50050	-2
1,50117	-2
1,50183	-2
1,50250	-2
1,50317	-2
1,50383	-2
1,50450	-2
1,50517	-2
1,50583	-2
1,50650	-2
1,50717	-2
1,50783	-2
1,50850	-2
1,50917	-2
1,50983	-2
1,51050	-2
1,51117	-2
1,51183	-2
1,51250	-2
1,51317	-2
1,51383	-2
1,51450	-2
1,51517	-2
1,51583	-2
1,51650	-2
1,51717	-2
1,51783	-2
1,51850	-2
1,51917	-2
1,51983	-2
1,52050	-2
1,52117	-2
1,52183	-2
1,52250	-2
1,52317	-2
1,52383	-2
1,52450	-2
1,52517	-2
1,52583	-2
1,52650	-2
1,52717	-2
1,52783	-2
1,52850	-2
1,52917	-2
1,52983	-2
1,53050	-2
1,53117	-2
1,53183	-2
1,53250	-2
1,53317	-2
1,53383	-2
1,53450	-2
1,53517	-2
1,53583	-2
1,53650	-2
1,53717	-2
1,53783	-2
1,53850	-2
1,53917	-2
1,53983	-2
1,54050	-2
1,54117	-2
1,54183	-2
1,54250	-2
1,54317	-2
1,54383	-2
1,54450	-2
1,54517	-2
1,54583	-2
1,54650	-2
1,54717	-2
1,54783	-2
1,54850	-2
1,54917	-2
1,54983	-2
1,55050	-2
1,55117	-2
1,55183	-2
1,55250	-2
1,55317	-2
1,55383	-2
1,55450	-2
1,55517	-2
1,55583	-2
1,55650	-2
1,55717	-2
1,55783	-2
1,55850	-2
1,55917	-2
1,55983	-2
1,56050	-2
1,56117	-2
1,56183	-2
1,56250	-2
1,56317	-2
1,56383	-2
1,56450	-2
1,56517	-2
1,56583	-2
1,56650	-2
1,56717	-2
1,56783	-2
1,56850	-2
1,56917	-2
1,56983	-2
1,57050	-2
1,57117	-2
1,57183	-2
1,57250	-2
1,57317	-2
1,57383	-2
1,57450	-2
1,57517	-2
1,57583	-2
1,57650	-2
1,57717	-2
1,57783	-2
1,57850	-2
1,57917	-2
1,57983	-2
1,58050	-2
1,58117	-2
1,58183	-2
1,58250	-2
1,58317	-2
1,58383	-2
1,58450	-2
1,58517	-2
1,58583	-2
1,58650	-2
1,58717	-2
1,58783	-2
1,58850	-2
1,58917	-2
1,58983	-2
1,59050	-2
1,59117	-2
1,59183	-2
1,59250	-2
1,59317	-2
1,59383	-2
1,59450	-2
1,59517	-2
1,59583	-2
1,59650	-2
1,59717	-2
1,59783	-2
1,59850	-2
1,59917	-2
1,59983	-2
1,60050	-2
1,60117	-2
1,60183	-2
1,60250	-2
1,60317	-2
1,60383	-2
1,60450	-2
1,60517	-2
1,60583	-2
1,60650	-2
1,60717	-2
1,60783	-2
1,60850	-2
1,60917	-2
1,60983	-2
1,61050	-2
1,61117	-2
1,61183	-2
1,61250	-2
1,61317	-2
1,61383	-2
1,61450	-2
1,61517	-2
1,61583	-2
1,61650	-2
1,61717	-2
1,61783	-2
1,61850	-2
1,61917	-2
1,61983	-2
1,62050	-2
1,62117	-2
1,62183	-2
1,62250	-2
1,62317	-2
1,62383	-2
1,62450	-2
1,62517	-2
1,62583	-2
1,62650	-2
1,62717	-2
1,62783	-2
1,62850	-2
1,62917	-2
1,62983	-2
1,63050	-2
1,63117	-2
1,63183	-2
1,63250	-2
1,63317	-2
1,63383	-2
1,63450	-2
1,63517	-2
1,63583	-2
1,63650	-2
1,63717	-2
1,63783	-2
1,63850	-2
1,63917	-2
1,63983	-2
1,64050	-2
1,64117	-2
1,64183	-2
1,64250	-2
1,64317	-2
1,64383	-2
1,64450	-2
1,64517	-2
1,64583	-2
1,64650	-2
1,64717	-2
1,64783	-2
1,64850	-2
1,64917	-2
1,64983	-2
1,65050	-2
1,65117	-2
1,65183	-2
1,65250	-2
1,65317	-2
1,65383	-2
1,65450	-2
1,65517	-2
1,65583	-2
1,65650	-2
1,65717	-2
1,65783	-2
1,65850	-2
1,65917	-2
1,65983	-2
1,66050	-2
1,66117	-2
1,66183	-2
1,66250	-2
1,66317	-2
1,66383	-2
1,66450	-2
1,66517	-2
1,66583	-2
1,66650	-2
1,66717	-2
1,66783	-2
1,66850	-2
1,66917	-2
1,66983	-2
1,67050	-2
1,67117	-2
1,67183	-2
1,67250	-2
1,67317	-2
1,67383	-2
1,67450	-2
1,67517	-2
1,67583	-2
1,67650	-2
1,67717	-2
1,67783	-2
1,67850	-2
1,67917	-2
1,67983	-2
1,68050	-2
1,68117	-2
1,68183	-2
1,68250	-2
1,68317	-2
1,68383	-2
1,68450	-2
1,68517	-2
1,68583	-2
1,68650	-2
1,68717	-2
1,68783	-2
1,68850	-2
1,68917	-2
1,68983	-2
1,69050	-2
1,69117	-2
1,69183	-2
1,69250	-2
1,69317	-2
1,69383	-2
1,69450	-2
1,69517	-2
1,69583	-2
1,69650	-2
1,69717	-2
1,69783	-2
1,69850	-2
1,69917	-2
1,69983	-2
1,70050	-2
1,70117	-2
1,70183	-2
1,70250	-2
1,70317	-2
1,70383	-2
1,70450	-2
1,70517	-2
1,70583	-2
1,70650	-2
1,70717	-2
1,70783	-2
1,70850	-2
1,70917	-2
1,70983	-2
1,71050	-2
1,71117	-2
1,71183	-2
1,71250	-2
1,71317	-2
1,71383	-2
1,71450	-2
1,71517	-2
1,71583	-2
1,71650	-2
1,71717	-2
1,71783	-2
1,71850	-2
1,71917	-2
1,71983	-2
1,72050	-2
1,72117	-2
1,72183	-2
1,72250	-2
1,72317	-2
1,72383	-2
1,72450	-2
1,72517	-2
1,72583	-2
1,72650	-2
1,72717	-2
1,72783	-2
1,72850	-2
1,72917	-2
1,72983	-2
1,73050	-2
1,73117	-2
1,73183	-2
1,73250	-2
1,73317	-2
1,73383	-2
1,73450	-2
1,73517	-2
1,73583	-2
1,73650	-2
1,73717	-2
1,73783	-2
1,73850	-2
1,73917	-2
1,73983	-2
1,74050	-2
1,74117	-2
1,74183	-2
1,74250	-2
1,74317	-2
1,74383	-2
1,74450	-2
1,74517	-2
1,74583	-2
1,74650	-2
1,74717	-2
1,74783	-2
1,74850	-2
1,74917	-2
1,74983	-2
1,75050	-2
1,75117	-2
1,75183	-2
1,75250	-2
1,75317	-2
1,75383	-2
1,75450	-2
1,75517	-2
1,75583	-2
1,75650	-2
1,75717	-2
1,75783	-2
1,75850	-2
1,75917	-2
1,75983	-2
1,76050	-2
1,76117	-2
1,76183	-2
1,76250	-2
1,76317	-2
1,76383	-2
1,76450	-2
1,76517	-2
1,76583	-2
1,76650	-2
1,76717	-2
1,76783	-2
1,76850	-2
1,76917	-2
1,76983	-2
1,77050	-2
1,77117	-2
1,77183	-2
1,77250	-2
1,77317	-2
1,77383	-2
1,77450	-2
1,77517	-2
1,77583	-2
1,77650	-2
1,77717	-2
1,77783	-2
1,77850	-2
1,77917	-2
1,77983	-2
1,78050	-2
1,78117	-2
1,78183	-2
1,78250	-2
1,78317	-2
1,78383	-2
1,78450	-2
1,78517	-2
1,78583	-2
1,78650	-2
1,78717	-2
1,78783	-2
1,78850	-2
1,78917	-2
1,78983	-2
1,79050	-2
1,79117	-2
1,79183	-2
1,79250	-2
1,79317	-2
1,79383	-2
1,79450	-2
1,79517	-2
1,79583	-1
1,79650	-1
1,79717	-1
1,79783	-1
1,79850	-1
1,79917	-1
1,79983	-1
1,80050	-1
1,80117	-1
1,80183	-1
1,80250	-1
1,80317	-1
1,80383	-1
1,80450	-1
1,80517	-1
1,80583	-1
1,80650	-1
1,80717	-1
1,80783	-1
1,80850	-1
1,80917	-1
1,80983	-1
1,81050	-1
1,81117	-1
1,81183	-1
1,81250	-1
1,81317	-1
1,81383	-1
1,81450	-1
1,81517	-1
1,81583	-1
1,81650	-1
1,81717	-1
1,81783	-1
1,81850	-1
1,81917	-1
1,81983	-1
1,82050	-1
1,82117	-1
1,82183	-1
1,82250	-1
1,82317	-1
1,82383	-1
1,82450	-1
1,82517	-1
1,82583	-1
1,82650	-1
1,82717	-1
1,82783	-1
1,82850	-1
1,82917	-1
1,82983	-1
1,83050	-1
1,83117	-1
1,83183	-1
1,83250	-1
1,83317	-1
1,83383	-1
1,83450	-1
1,83517	-1
1,83583	-1
1,83650	-1
1,83717	-1
1,83783	-1
1,83850	-1
1,83917	-1
1,83983	-1
1,84050	-1
1,84117	-1
1,84183	-1
1,84250	-1
1,84317	-1
1,84383	-1
1,84450	-1
1,84517	-1
1,84583	-1
1,84650	-1
1,84717	-1
1,84783	-1
1,84850	-1
1,84917	-1
1,84983	-1
1,85050	-1
1,85117	-1
1,85183	-1
1,85250	-1
1,85317	-1
1,85383	-1
1,85450	-1
1,85517	-1
1,85583	-1
1,85650	-1
1,85717	-1
1,85783	-1
1,85850	-1
1,85917	-1
1,85983	-1
1,86050	-1
1,86117	-1
1,86183	-1
1,86250	-1
1,86317	-1
1,86383	-1
1,86450	-1
1,86517	-1
1,86583	-1
1,86650	-1
1,86717	-1
1,86783	-1
1,86850	-1
1,86917	-1
1,86983	-1
1,87050	-1
1,87117	-1
1,87183	-1
1,87250	-1
1,87317	-1
1,87383	-1
1,87450	-1
1,87517	-1
1,87583	-1
1,87650	-1
1,87717	-1
1,87783	-1
1,87850	-1
1,87917	-1
1,87983	-1
1,88050	-1
1,88117	-1
1,88183	-1
1,88250	-1
1,88317	-1
1,88383	-1
1,88450	-1
1,88517	-1
1,88583	-1
1,88650	-1
1,88717	-1
1,88783	-1
1,88850	-1
1,88917	-1
1,88983	-1
1,89050	-1
1,89117	-1
1,89183	-1
1,89250	-1
1,89317	-1
1,89383	-1
1,89450	-1
1,89517	-1
1,89583	-1
1,89650	-1
1,89717	-1
1,89783	-1
1,89850	-1
1,89917	-1
1,89983	-1
1,90050	-1
1,90117	-1
1,90183	-1
1,90250	-1
1,90317	-1
1,90383	-1
1,90450	-1
1,90517	-1
1,90583	-1
1,90650	-1
1,90717	-1
1,90783	-1
1,90850	-1
1,90917	-1
1,90983	-1
1,91050	-1
1,91117	-1
1,91183	-1
1,91250	-1
1,91317	-1
1,91383	-1
1,91450	-1
1,91517	-1
1,91583	-1
1,91650	-1
1,91717	-1
1,91783	-1
1,91850	-1
1,91917	-1
1,91983	-1
1,92050	-1
1,92117	-1
1,92183	-1
1,92250	-1
1,92317	-1
1,92383	-1
1,92450	-1
1,92517	-1
1,92583	-1
1,92650	-1
1,92717	-1
1,92783	-1
1,92850	-1
1,92917	-1
1,92983	-1
1,93050	-1
1,93117	-1
1,93183	-1
1,93250	-1
1,93317	-1
1,93383	-1
1,93450	-1
1,93517	-1
1,93583	-1
1,93650	-1
1,93717	-1
1,93783	-1
1,93850	-1
1,93917	-1
1,93983	-1
1,94050	-1
1,94117	-1
1,94183	-1
1,94250	-1
1,94317	-1
1,94383	-1
1,94450	-1
1,94517	-1
1,94583	-1
1,94650	-2
1,94717	-2
1,94783	-2
1,94850	-2
1,94917	-2
1,94983	-2
1,95050	-2
1,95117	-2
1,95183	-2
1,95250	-2
1,95317	-2
1,95383	-2
1,95450	-2
1,95517	-2
1,95583	-2
1,95650	-2
1,95717	-2
1,95783	-2
1,95850	-2
1,95917	-2
1,95983	-2
1,96050	-2
1,96117	-2
1,96183	-2
1,96250	-2
1,96317	-2
1,96383	-2
1,96450	-2
1,96517	-2
1,96583	-2
1,96650	-2
1,96717	-2
1,96783	-2
1,96850	-2
1,96917	-2
1,96983	-2
1,97050	-2
1,97117	-2
1,97183	-2
1,97250	-2
1,97317	-2
1,97383	-2
1,97450	-2
1,97517	-2
1,97583	-2
1,97650	-2
1,97717	-2
1,97783	-2
1,97850	-2
1,97917	-2
1,97983	-2
1,98050	-2
1,98117	-2
1,98183	-2
1,98250	-2
1,98317	-2
1,98383	-2
1,98450	-2
1,98517	-2
1,98583	-2
1,98650	-2
1,98717	-2
1,98783	-2
1,98850	-2
1,98917	-2
1,98983	-2
1,99050	-2
1,99117	-2
1,99183	-2
1,99250	-2
1,99317	-2
1,99383	-2
1,99450	-2
1,99517	-2
1,99583	-2
1,99650	-2
1,99717	-2
1,99783	-2
1,99850	-2
1,99917	-2
1,99983	-2
2,00050	-2
2,00117	-2
2,00183	-2
2,00250	-2
2,00317	-2
2,00383	-2
2,00450	-2
2,00517	-2
2,00583	-2
2,00650	-2
2,00717	-2
2,00783	-2
2,00850	-2
2,00917	-2
2,00983	-2
2,01050	-2
2,01117	-2
2,01183	-2
2,01250	-2
2,01317	-2
2,01383	-2
2,01450	-2
2,01517	-2
2,01583	-2
2,01650	-2
2,01717	-2
2,01783	-2
2,01850	-2
2,01917	-2
2,01983	-2
2,02050	-2
2,02117	-2
2,02183	-2
2,02250	-2
2,02317	-2
2,02383	-2
2,02450	-2
2,02517	-2
2,02583	-2
2,02650	-2
2,02717	-2
2,02783	-2
2,02850	-2
2,02917	-2
2,02983	-2
2,03050	-2
2,03117	-2
2,03183	-2
2,03250	-2
2,03317	-2
2,03383	-2
2,03450	-2
2,03517	-2
2,03583	-2
2,03650	-2
2,03717	-2
2,03783	-2
2,03850	-2
2,03917	-2
2,03983	-2
2,04050	-2
2,04117	-2
2,04183	-2
2,04250	-2
2,04317	-2
2,04383	-2
2,04450	-2
2,04517	-2
2,04583	-2
2,04650	-2
2,04717	-2
2,04783	-2
2,04850	-2
2,04917	-2
2,04983	-2
2,05050	-2
2,05117	-2
2,05183	-2
2,05250	-2
2,05317	-2
2,05383	-2
2,05450	-2
2,05517	-2
2,05583	-2
2,05650	-2
2,05717	-2
2,05783	-2
2,05850	-2
2,05917	-2
2,05983	-2
2,06050	-2
2,06117	-2
2,06183	-2
2,06250	-2
2,06317	-2
2,06383	-2
2,06450	-1
2,06517	-1
2,06583	-1
2,06650	-1
2,06717	-1
2,06783	-1
2,06850	-1
2,06917	-1
2,06983	-1
2,07050	-1
2,07117	-1
2,07183	-1
2,07250	-1
2,07317	-1
2,07383	-1
2,07450	-1
2,07517	-1
2,07583	-1
2,07650	-1
2,07717	-1
2,07783	-1
2,07850	-1
2,07917	-1
2,07983	-1
2,08050	-1
2,08117	-1
2,08183	-1
2,08250	-1
2,08317	-1
2,08383	-1
2,08450	-1
2,08517	-1
2,08583	-1
2,08650	-1
2,08717	-1
2,08783	-1
2,08850	-1
2,08917	-1
2,08983	-1
2,09050	-1
2,09117	-1
2,09183	-1
2,09250	-1
2,09317	-1
2,09383	-1
2,09450	-1
2,09517	-1
2,09583	-1
2,09650	-1
2,09717	-1
2,09783	-1
2,09850	-1
2,09917	-1
2,09983	-1
2,10050	-1
2,10117	-1
2,10183	-1
2,10250	-1
2,10317	-1
2,10383	-1
2,10450	-1
2,10517	-1
2,10583	-1
2,10650	-1
2,10717	-1
2,10783	-1
2,10850	-1
2,10917	-1
2,10983	-1
2,11050	-1
2,11117	-1
2,11183	-1
2,11250	-1
2,11317	-1
2,11383	-1
2,11450	-1
2,11517	-1
2,11583	-1
2,11650	-1
2,11717	-1
2,11783	-1
2,11850	-1
2,11917	-1
2,11983	-1
2,12050	-1
2,12117	-1
2,12183	-1
2,12250	-1
2,12317	-1
2,12383	-1
2,12450	-1
2,12517	-1
2,12583	-1
2,12650	-1
2,12717	-1
2,12783	-1
2,12850	-1
2,12917	-1
2,12983	-1
2,13050	-1
2,13117	-1
2,13183	-1
2,13250	-1
2,13317	-1
2,13383	-1
2,13450	-1
2,13517	-1
2,13583	-1
2,13650	-1
2,13717	-1
2,13783	-1
2,13850	-1
2,13917	-1
2,13983	-1
2,14050	-1
2,14117	-1
2,14183	-1
2,14250	-1
2,14317	-1
2,14383	-1
2,14450	-1
2,14517	-1
2,14583	-1
2,14650	-1
2,14717	-1
2,14783	-1
2,14850	-1
2,14917	-1
2,14983	-1
2,15050	-1
2,15117	-1
2,15183	-1
2,15250	-1
2,15317	-1
2,15383	-1
2,15450	-1
2,15517	-1
2,15583	-1
2,15650	-1
2,15717	-1
2,15783	-1
2,15850	-1
2,15917	-1
2,15983	-1
2,16050	-1
2,16117	-1
2,16183	-1
2,16250	-1
2,16317	-1
2,16383	-1
2,16450	-1
2,16517	-1
2,16583	-1
2,16650	-1
2,16717	-1
2,16783	-1
2,16850	-1
2,16917	-1
2,16983	-1
2,17050	-1
2,17117	-1
2,17183	-1
2,17250	-1
2,17317	-1
2,17383	-1
2,17450	-1
2,17517	-1
2,17583	-1
2,17650	-1
2,17717	-1
2,17783	-1
2,17850	-1
2,17917	-1
2,17983	-1
2,18050	-1
2,18117	-1
2,18183	-1
2,18250	-1
2,18317	-1
2,18383	-1
2,18450	-1
2,18517	-1
2,18583	-1
2,18650	-1
2,18717	-1
2,18783	-1
2,18850	-1
2,18917	-1
2,18983	-1
2,19050	-1
2,19117	-1
2,19183	-1
2,19250	-1
2,19317	-1
2,19383	-1
2,19450	-1
2,19517	-1
2,19583	-1
2,19650	-1
2,19717	-1
2,19783	-1
2,19850	-1
2,19917	-1
2,19983	-1
2,20050	-1
2,20117	-1
2,20183	-1
2,20250	-1
2,20317	-1
2,20383	-1
2,20450	-1
2,20517	-1
2,20583	-1
2,20650	-1
2,20717	-1
2,20783	-1
2,20850	-1
2,20917	-1
2,20983	-1
2,21050	-1
2,21117	-0
2,21183	-0
2,21250	-0
2,21317	-0
2,21383	-0
2,21450	-0
2,21517	-0
2,21583	-0
2,21650	-0
2,21717	-0
2,21783	-0
2,21850	-0
2,21917	-0
2,21983	-0
2,22050	-0
2,22117	-0
2,22183	-0
2,22250	-0
2,22317	-0
2,22383	-0
2,22450	-0
2,22517	-0
2,22583	-0
2,22650	-0
2,22717	-0
2,22783	-0
2,22850	-0
2,22917	-0
2,22983	-0
2,23050	-0
2,23117	-0
2,23183	-0
2,23250	-0
2,23317	-0
2,23383	-0
2,23450	-0
2,23517	-0
2,23583	-0
2,23650	-0
2,23717	0
2,23783	0
2,23850	0
2,23917	0
2,23983	0
2,24050	0
2,24117	0
2,24183	0
2,24250	0
2,24317	0
2,24383	0
2,24450	0
2,24517	0
2,24583	0
2,24650	0
2,24717	0
2,24783	0
2,24850	0
2,24917	0
2,24983	0
2,25050	0
2,25117	0
2,25183	0
2,25250	0
2,25317	0
2,25383	0
2,25450	0
2,25517	0
2,25583	0
2,25650	0
2,25717	0
2,25783	0
2,25850	0
2,25917	0
2,25983	0
2,26050	0
2,26117	0
2,26183	0
2,26250	0
2,26317	-0
2,26383	-0
2,26450	-0
2,26517	-0
2,26583	-0
2,26650	-0
2,26717	-0
2,26783	-0
2,26850	-0
2,26917	-0
2,26983	-0
2,27050	-0
2,27117	-0
2,27183	-0
2,27250	-0
2,27317	-0
2,27383	-0
2,27450	-0
2,27517	-0
2,27583	-0
2,27650	-0
2,27717	-0
2,27783	-0
2,27850	-0
2,27917	-0
2,27983	-0
2,28050	-0
2,28117	-0
2,28183	-0
2,28250	-0
2,28317	-0
2,28383	-0
2,28450	-0
2,28517	-0
2,28583	-0
2,28650	-0
2,28717	-0
2,28783	-0
2,28850	-0
2,28917	-0
2,28983	-0
2,29050	-0
2,29117	-0
2,29183	-0
2,29250	-0
2,29317	-0
2,29383	-0
2,29450	-0
2,29517	-0
2,29583	-0
2,29650	-0
2,29717	-0
2,29783	-0
2,29850	-0
2,29917	-0
2,29983	-0
2,30050	-0
2,30117	-0
2,30183	-0
2,30250	-0
2,30317	-0
2,30383	-0
2,30450	-0
2,30517	-0
2,30583	-0
2,30650	-0
2,30717	-0
2,30783	-0
2,30850	-0
2,30917	-1
2,30983	-1
2,31050	-1
2,31117	-1
2,31183	-1
2,31250	-1
2,31317	-1
2,31383	-1
2,31450	-1
2,31517	-1
2,31583	-1
2,31650	-1
2,31717	-1
2,31783	-1
2,31850	-1
2,31917	-1
2,31983	-1
2,32050	-1
2,32117	-1
2,32183	-1
2,32250	-1
2,32317	-1
2,32383	-1
2,32450	-1
2,32517	-1
2,32583	-1
2,32650	-1
2,32717	-1
2,32783	-1
2,32850	-1
2,32917	-1
2,32983	-1
2,33050	-1
2,33117	-1
2,33183	-1
2,33250	-1
2,33317	-1
2,33383	-1
2,33450	-1
2,33517	-1
2,33583	-1
2,33650	-1
2,33717	-1
2,33783	-1
2,33850	-1
2,33917	-1
2,33983	-1
2,34050	-1
2,34117	-1
2,34183	-1
2,34250	-1
2,34317	-1
2,34383	-1
2,34450	-1
2,34517	-1
2,34583	-1
2,34650	-1
2,34717	-1
2,34783	-1
2,34850	-1
2,34917	-1
2,34983	-1
2,35050	-1
2,35117	-1
2,35183	-1
2,35250	-1
2,35317	-1
2,35383	-1
2,35450	-1
2,35517	-1
2,35583	-1
2,35650	-1
2,35717	-1
2,35783	-1
2,35850	-1
2,35917	-1
2,35983	-1
2,36050	-1
2,36117	-1
2,36183	-1
2,36250	-1
2,36317	-1
2,36383	-1
2,36450	-1
2,36517	-1
2,36583	-1
2,36650	-1
2,36717	-1
2,36783	-1
2,36850	-1
2,36917	-1
2,36983	-1
2,37050	-1
2,37117	-1
2,37183	-1
2,37250	-1
2,37317	-1
2,37383	-1
2,37450	-1
2,37517	-1
2,37583	-1
2,37650	-1
2,37717	-1
2,37783	-1
2,37850	-1
2,37917	-1
2,37983	-1
2,38050	-1
2,38117	-1
2,38183	-1
2,38250	-1
2,38317	-1
2,38383	-1
2,38450	-1
2,38517	-1
2,38583	-1
2,38650	-1
2,38717	-1
2,38783	-1
2,38850	-1
2,38917	-1
2,38983	-1
2,39050	-1
2,39117	-1
2,39183	-1
2,39250	-1
2,39317	-1
2,39383	-1
2,39450	-1
2,39517	-1
2,39583	-1
2,39650	-1
2,39717	-1
2,39783	-1
2,39850	-1
2,39917	-1
2,39983	-1
2,40050	-1
2,40117	-1
2,40183	-1
2,40250	-1
2,40317	-1
2,40383	-1
2,40450	-1
2,40517	-1
2,40583	-1
2,40650	-1
2,40717	-1
2,40783	-1
2,40850	-1
2,40917	-1
2,40983	-1
2,41050	-1
2,41117	-1
2,41183	-1
2,41250	-1
2,41317	-1
2,41383	-1
2,41450	-1
2,41517	-1
2,41583	-1
2,41650	-1
2,41717	-1
2,41783	-1
2,41850	-1
2,41917	-1
2,41983	-1
2,42050	-1
2,42117	-1
2,42183	-1
2,42250	-1
2,42317	-1
2,42383	-1
2,42450	-1
2,42517	-1
2,42583	-1
2,42650	-1
2,42717	-1
2,42783	-1
2,42850	-1
2,42917	-1
2,42983	-1
2,43050	-1
2,43117	-1
2,43183	-2
2,43250	-2
2,43317	-2
2,43383	-2
2,43450	-2
2,43517	-2
2,43583	-2
2,43650	-2
2,43717	-2
2,43783	-2
2,43850	-2
2,43917	-2
2,43983	-2
2,44050	-2
2,44117	-2
2,44183	-2
2,44250	-2
2,44317	-2
2,44383	-2
2,44450	-2
2,44517	-2
2,44583	-2
2,44650	-2
2,44717	-2
2,44783	-2
2,44850	-2
2,44917	-2
2,44983	-2
2,45050	-2
2,45117	-2
2,45183	-2
2,45250	-2
2,45317	-2
2,45383	-2
2,45450	-2
2,45517	-2
2,45583	-2
2,45650	-2
2,45717	-2
2,45783	-2
2,45850	-2
2,45917	-2
2,45983	-2
2,46050	-2
2,46117	-2
2,46183	-2
2,46250	-2
2,46317	-2
2,46383	-2
2,46450	-2
2,46517	-2
2,46583	-2
2,46650	-2
2,46717	-2
2,46783	-2
2,46850	-2
2,46917	-2
2,46983	-2
2,47050	-2
2,47117	-2
2,47183	-2
2,47250	-2
2,47317	-2
2,47383	-2
2,47450	-2
2,47517	-2
2,47583	-2
2,47650	-2
2,47717	-2
2,47783	-2
2,47850	-2
2,47917	-2
2,47983	-2
2,48050	-2
2,48117	-2
2,48183	-2
2,48250	-2
2,48317	-2
2,48383	-2
2,48450	-2
2,48517	-2
2,48583	-2
2,48650	-2
2,48717	-2
2,48783	-2
2,48850	-2
2,48917	-2
2,48983	-2
2,49050	-2
2,49117	-2
2,49183	-2
2,49250	-2
2,49317	-2
2,49383	-2
2,49450	-2
2,49517	-2
2,49583	-2
2,49650	-2
2,49717	-2
2,49783	-2
2,49850	-2
2,49917	-2
2,49983	-2
2,50050	-2
2,50117	-2
2,50183	-2
2,50250	-2
2,50317	-2
2,50383	-2
2,50450	-2
2,50517	-2
2,50583	-2
2,50650	-2
2,50717	-2
2,50783	-2
2,50850	-2
2,50917	-2
2,50983	-2
2,51050	-2
2,51117	-2
2,51183	-2
2,51250	-2
2,51317	-2
2,51383	-2
2,51450	-2
2,51517	-2
2,51583	-2
2,51650	-2
2,51717	-2
2,51783	-2
2,51850	-2
2,51917	-2
2,51983	-2
2,52050	-2
2,52117	-2
2,52183	-2
2,52250	-2
2,52317	-2
2,52383	-2
2,52450	-2
2,52517	-2
2,52583	-2
2,52650	-2
2,52717	-2
2,52783	-2
2,52850	-2
2,52917	-2
2,52983	-2
2,53050	-2
2,53117	-2
2,53183	-2
2,53250	-2
2,53317	-2
2,53383	-2
2,53450	-2
2,53517	-2
2,53583	-2
2,53650	-2
2,53717	-2
2,53783	-2
2,53850	-2
2,53917	-2
2,53983	-2
2,54050	-2
2,54117	-2
2,54183	-2
2,54250	-2
2,54317	-2
2,54383	-2
2,54450	-2
2,54517	-2
2,54583	-2
2,54650	-2
2,54717	-2
2,54783	-2
2,54850	-2
2,54917	-2
2,54983	-2
2,55050	-2
2,55117	-2
2,55183	-2
2,55250	-2
2,55317	-2
2,55383	-2
2,55450	-2
2,55517	-2
2,55583	-2
2,55650	-2
2,55717	-2
2,55783	-1
2,55850	-1
2,55917	-1
2,55983	-1
2,56050	-1
2,56117	-1
2,56183	-1
2,56250	-1
2,56317	-1
2,56383	-1
2,56450	-1
2,56517	-1
2,56583	-1
2,56650	-1
2,56717	-1
2,56783	-1
2,56850	-1
2,56917	-1
2,56983	-1
2,57050	-1
2,57117	-1
2,57183	-1
2,57250	-1
2,57317	-1
2,57383	-1
2,57450	-1
2,57517	-1
2,57583	-1
2,57650	-1
2,57717	-0
2,57783	-0
2,57850	-0
2,57917	-0
2,57983	-0
2,58050	-0
2,58117	-0
2,58183	0
2,58250	0
2,58317	0
2,58383	0
2,58450	0
2,58517	0
2,58583	0
2,58650	1
2,58717	1
2,58783	1
2,58850	1
2,58917	1
2,58983	1
2,59050	1
2,59117	1
2,59183	2
2,59250	2
2,59317	2
2,59383	2
2,59450	2
2,59517	2
2,59583	2
2,59650	3
2,59717	3
2,59783	3
2,59850	3
2,59917	3
2,59983	3
2,60050	4
2,60117	4
2,60183	4
2,60250	4
2,60317	4
2,60383	5
2,60450	5
2,60517	5
2,60583	5
2,60650	6
2,60717	6
2,60783	6
2,60850	7
2,60917	7
2,60983	7
2,61050	7
2,61117	8
2,61183	8
2,61250	8
2,61317	9
2,61383	9
2,61450	9
2,61517	10
2,61583	10
2,61650	11
2,61717	11
2,61783	11
2,61850	12
2,61917	12
2,61983	13
2,62050	13
2,62117	14
2,62183	14
2,62250	15
2,62317	15
2,62383	16
2,62450	16
2,62517	17
2,62583	17
2,62650	18
2,62717	18
2,62783	19
2,62850	20
2,62917	20
2,62983	21
2,63050	22
2,63117	22
2,63183	23
2,63250	24
2,63317	24
2,63383	25
2,63450	26
2,63517	26
2,63583	27
2,63650	28
2,63717	29
2,63783	30
2,63850	31
2,63917	31
2,63983	32
2,64050	33
2,64117	34
2,64183	35
2,64250	36
2,64317	37
2,64383	38
2,64450	39
2,64517	40
2,64583	41
2,64650	42
2,64717	43
2,64783	44
2,64850	45
2,64917	47
2,64983	48
2,65050	49
2,65117	50
2,65183	51
2,65250	53
2,65317	54
2,65383	55
2,65450	57
2,65517	58
2,65583	59
2,65650	61
2,65717	62
2,65783	64
2,65850	65
2,65917	66
2,65983	68
2,66050	70
2,66117	71
2,66183	73
2,66250	74
2,66317	76
2,66383	78
2,66450	79
2,66517	81
2,66583	83
2,66650	84
2,66717	86
2,66783	88
2,66850	90
2,66917	92
2,66983	94
2,67050	95
2,67117	97
2,67183	99
2,67250	101
2,67317	103
2,67383	105
2,67450	108
2,67517	110
2,67583	112
2,67650	114
2,67717	116
2,67783	118
2,67850	121
2,67917	123
2,67983	125
2,68050	127
2,68117	130
2,68183	132
2,68250	135
2,68317	137
2,68383	139
2,68450	142
2,68517	145
2,68583	147
2,68650	150
2,68717	152
2,68783	155
2,68850	158
2,68917	160
2,68983	163
2,69050	166
2,69117	169
2,69183	171
2,69250	174
2,69317	177
2,69383	180
2,69450	183
2,69517	186
2,69583	189
2,69650	192
2,69717	195
2,69783	198
2,69850	201
2,69917	204
2,69983	208
2,70050	211
2,70117	214
2,70183	217
2,70250	221
2,70317	224
2,70383	227
2,70450	231
2,70517	234
2,70583	238
2,70650	241
2,70717	245
2,70783	248
2,70850	252
2,70917	255
2,70983	259
2,71050	263
2,71117	266
2,71183	270
2,71250	274
2,71317	278
2,71383	281
2,71450	285
2,71517	289
2,71583	293
2,71650	297
2,71717	301
2,71783	305
2,71850	309
2,71917	313
2,71983	317
2,72050	321
2,72117	325
2,72183	329
2,72250	333
2,72317	338
2,72383	342
2,72450	346
2,72517	350
2,72583	355
2,72650	359
2,72717	363
2,72783	368
2,72850	372
2,72917	377
2,72983	381
2,73050	386
2,73117	390
2,73183	395
2,73250	399
2,73317	404
2,73383	409
2,73450	413
2,73517	418
2,73583	423
2,73650	428
2,73717	432
2,73783	437
2,73850	442
2,73917	447
2,73983	452
2,74050	457
2,74117	461
2,74183	466
2,74250	471
2,74317	476
2,74383	481
2,74450	487
2,74517	492
2,74583	497
2,74650	502
2,74717	507
2,74783	512
2,74850	517
2,74917	523
2,74983	528
2,75050	533
2,75117	538
2,75183	544
2,75250	549
2,75317	554
2,75383	560
2,75450	565
2,75517	571
2,75583	576
2,75650	582
2,75717	587
2,75783	593
2,75850	598
2,75917	604
2,75983	609
2,76050	615
2,76117	621
2,76183	626
2,76250	632
2,76317	638
2,76383	643
2,76450	649
2,76517	655
2,76583	660
2,76650	666
2,76717	672
2,76783	678
2,76850	684
2,76917	690
2,76983	696
2,77050	701
2,77117	707
2,77183	713
2,77250	719
2,77317	725
2,77383	731
2,77450	737
2,77517	743
2,77583	749
2,77650	755
2,77717	762
2,77783	768
2,77850	774
2,77917	780
2,77983	786
2,78050	792
2,78117	798
2,78183	805
2,78250	811
2,78317	817
2,78383	823
2,78450	830
2,78517	836
2,78583	842
2,78650	849
2,78717	855
2,78783	861
2,78850	868
2,78917	874
2,78983	880
2,79050	887
2,79117	893
2,79183	900
2,79250	906
2,79317	913
2,79383	919
2,79450	926
2,79517	932
2,79583	939
2,79650	945
2,79717	952
2,79783	958
2,79850	965
2,79917	971
2,79983	978
2,80050	985
2,80117	991
2,80183	998
2,80250	1005
2,80317	1011
2,80383	1018
2,80450	1025
2,80517	1031
2,80583	1038
2,80650	1045
2,80717	1051
2,80783	1058
2,80850	1065
2,80917	1072
2,80983	1078
2,81050	1085
2,81117	1092
2,81183	1099
2,81250	1106
2,81317	1112
2,81383	1119
2,81450	1126
2,81517	1133
2,81583	1140
2,81650	1147
2,81717	1153
2,81783	1160
2,81850	1167
2,81917	1174
2,81983	1181
2,82050	1188
2,82117	1195
2,82183	1202
2,82250	1209
2,82317	1216
2,82383	1223
2,82450	1230
2,82517	1237
2,82583	1244
2,82650	1251
2,82717	1258
2,82783	1265
2,82850	1272
2,82917	1279
2,82983	1286
2,83050	1293
2,83117	1300
2,83183	1307
2,83250	1314
2,83317	1321
2,83383	1328
2,83450	1335
2,83517	1342
2,83583	1349
2,83650	1356
2,83717	1364
2,83783	1371
2,83850	1378
2,83917	1385
2,83983	1392
2,84050	1399
2,84117	1406
2,84183	1413
2,84250	1421
2,84317	1428
2,84383	1435
2,84450	1442
2,84517	1449
2,84583	1457
2,84650	1464
2,84717	1471
2,84783	1478
2,84850	1485
2,84917	1493
2,84983	1500
2,85050	1507
2,85117	1514
2,85183	1522
2,85250	1529
2,85317	1536
2,85383	1543
2,85450	1551
2,85517	1558
2,85583	1565
2,85650	1572
2,85717	1580
2,85783	1587
2,85850	1594
2,85917	1602
2,85983	1609
2,86050	1616
2,86117	1624
2,86183	1631
2,86250	1638
2,86317	1646
2,86383	1653
2,86450	1660
2,86517	1667
2,86583	1675
2,86650	1682
2,86717	1689
2,86783	1697
2,86850	1704
2,86917	1712
2,86983	1719
2,87050	1726
2,87117	1734
2,87183	1741
2,87250	1748
2,87317	1756
2,87383	1763
2,87450	1770
2,87517	1778
2,87583	1785
2,87650	1792
2,87717	1800
2,87783	1807
2,87850	1815
2,87917	1822
2,87983	1829
2,88050	1837
2,88117	1844
2,88183	1852
2,88250	1859
2,88317	1866
2,88383	1874
2,88450	1881
2,88517	1889
2,88583	1896
2,88650	1903
2,88717	1911
2,88783	1918
2,88850	1926
2,88917	1933
2,88983	1940
2,89050	1948
2,89117	1955
2,89183	1963
2,89250	1970
2,89317	1977
2,89383	1985
2,89450	1992
2,89517	2000
2,89583	2007
2,89650	2015
2,89717	2022
2,89783	2029
2,89850	2037
2,89917	2044
2,89983	2052
2,90050	2059
2,90117	2067
2,90183	2074
2,90250	2081
2,90317	2089
2,90383	2096
2,90450	2104
2,90517	2111
2,90583	2119
2,90650	2126
2,90717	2133
2,90783	2141
2,90850	2148
2,90917	2156
2,90983	2163
2,91050	2171
2,91117	2178
2,91183	2185
2,91250	2193
2,91317	2200
2,91383	2208
2,91450	2215
2,91517	2223
2,91583	2230
2,91650	2237
2,91717	2245
2,91783	2252
2,91850	2260
2,91917	2267
2,91983	2274
2,92050	2282
2,92117	2289
2,92183	2297
2,92250	2304
2,92317	2311
2,92383	2319
2,92450	2326
2,92517	2334
2,92583	2341
2,92650	2349
2,92717	2356
2,92783	2363
2,92850	2371
2,92917	2378
2,92983	2386
2,93050	2393
2,93117	2400
2,93183	2408
2,93250	2415
2,93317	2423
2,93383	2430
2,93450	2437
2,93517	2445
2,93583	2452
2,93650	2459
2,93717	2467
2,93783	2474
2,93850	2482
2,93917	2489
2,93983	2496
2,94050	2504
2,94117	2511
2,94183	2518
2,94250	2526
2,94317	2533
2,94383	2540
2,94450	2548
2,94517	2555
2,94583	2562
2,94650	2570
2,94717	2577
2,94783	2584
2,94850	2592
2,94917	2599
2,94983	2606
2,95050	2614
2,95117	2621
2,95183	2628
2,95250	2636
2,95317	2643
2,95383	2650
2,95450	2657
2,95517	2665
2,95583	2672
2,95650	2679
2,95717	2687
2,95783	2694
2,95850	2701
2,95917	2708
2,95983	2716
2,96050	2723
2,96117	2730
2,96183	2737
2,96250	2745
2,96317	2752
2,96383	2759
2,96450	2766
2,96517	2774
2,96583	2781
2,96650	2788
2,96717	2795
2,96783	2803
2,96850	2810
2,96917	2817
2,96983	2824
2,97050	2831
2,97117	2839
2,97183	2846
2,97250	2853
2,97317	2860
2,97383	2867
2,97450	2875
2,97517	2882
2,97583	2889
2,97650	2896
2,97717	2903
2,97783	2910
2,97850	2917
2,97917	2925
2,97983	2932
2,98050	2939
2,98117	2946
2,98183	2953
2,98250	2960
2,98317	2967
2,98383	2974
2,98450	2981
2,98517	2989
2,98583	2996
2,98650	3003
2,98717	3010
2,98783	3017
2,98850	3024
2,98917	3031
2,98983	3038
2,99050	3045
2,99117	3052
2,99183	3059
2,99250	3066
2,99317	3073
2,99383	3080
2,99450	3087
2,99517	3094
2,99583	3101
2,99650	3108
2,99717	3115
2,99783	3122
2,99850	3129
2,99917	3136
2,99983	3143
3,00050	3150
3,00117	3157
3,00183	3164
3,00250	3171
3,00317	3178
3,00383	3185
3,00450	3192
3,00517	3199
3,00583	3205
3,00650	3212
3,00717	3219
3,00783	3226
3,00850	3233
3,00917	3240
3,00983	3247
3,01050	3254
3,01117	3261
3,01183	3267
3,01250	3274
3,01317	3281
3,01383	3288
3,01450	3295
3,01517	3302
3,01583	3308
3,01650	3315
3,01717	3322
3,01783	3329
3,01850	3336
3,01917	3342
3,01983	3349
3,02050	3356
3,02117	3363
3,02183	3369
3,02250	3376
3,02317	3383
3,02383	3390
3,02450	3396
3,02517	3403
3,02583	3410
3,02650	3416
3,02717	3423
3,02783	3430
3,02850	3436
3,02917	3443
3,02983	3450
3,03050	3456
3,03117	3463
3,03183	3470
3,03250	3476
3,03317	3483
3,03383	3489
3,03450	3496
3,03517	3502
3,03583	3509
3,03650	3516
3,03717	3522
3,03783	3529
3,03850	3535
3,03917	3542
3,03983	3548
3,04050	3555
3,04117	3561
3,04183	3567
3,04250	3574
3,04317	3580
3,04383	3587
3,04450	3593
3,04517	3600
3,04583	3606
3,04650	3612
3,04717	3619
3,04783	3625
3,04850	3631
3,04917	3638
3,04983	3644
3,05050	3650
3,05117	3657
3,05183	3663
3,05250	3669
3,05317	3675
3,05383	3682
3,05450	3688
3,05517	3694
3,05583	3700
3,05650	3706
3,05717	3712
3,05783	3718
3,05850	3725
3,05917	3731
3,05983	3737
3,06050	3743
3,06117	3749
3,06183	3755
3,06250	3761
3,06317	3767
3,06383	3773
3,06450	3779
3,06517	3785
3,06583	3790
3,06650	3796
3,06717	3802
3,06783	3808
3,06850	3814
3,06917	3819
3,06983	3825
3,07050	3831
3,07117	3836
3,07183	3842
3,07250	3848
3,07317	3853
3,07383	3859
3,07450	3864
3,07517	3870
3,07583	3875
3,07650	3880
3,07717	3886
3,07783	3891
3,07850	3896
3,07917	3901
3,07983	3907
3,08050	3912
3,08117	3917
3,08183	3922
3,08250	3927
3,08317	3932
3,08383	3937
3,08450	3941
3,08517	3946
3,08583	3951
3,08650	3955
3,08717	3960
3,08783	3965
3,08850	3969
3,08917	3973
3,08983	3978
3,09050	3982
3,09117	3986
3,09183	3990
3,09250	3994
3,09317	3998
3,09383	4002
3,09450	4006
3,09517	4009
3,09583	4013
3,09650	4016
3,09717	4019
3,09783	4023
3,09850	4026
3,09917	4029
3,09983	4031
3,10050	4034
3,10117	4037
3,10183	4039
3,10250	4042
3,10317	4044
3,10383	4046
3,10450	4048
3,10517	4049
3,10583	4051
3,10650	4052
3,10717	4053
3,10783	4054
3,10850	4055
3,10917	4055
3,10983	4056
3,11050	4056
3,11117	4056
3,11183	4056
3,11250	4055
3,11317	4054
3,11383	4053
3,11450	4052
3,11517	4051
3,11583	4049
3,11650	4047
3,11717	4044
3,11783	4042
3,11850	4039
3,11917	4036
3,11983	4032
3,12050	4028
3,12117	4024
3,12183	4020
3,12250	4015
3,12317	4010
3,12383	4004
3,12450	3998
3,12517	3992
3,12583	3986
3,12650	3979
3,12717	3971
3,12783	3963
3,12850	3955
3,12917	3947
3,12983	3938
3,13050	3929
3,13117	3919
3,13183	3909
3,13250	3898
3,13317	3887
3,13383	3876
3,13450	3864
3,13517	3852
3,13583	3840
3,13650	3827
3,13717	3813
3,13783	3799
3,13850	3785
3,13917	3770
3,13983	3755
3,14050	3740
3,14117	3724
3,14183	3708
3,14250	3691
3,14317	3674
3,14383	3657
3,14450	3639
3,14517	3621
3,14583	3602
3,14650	3583
3,14717	3564
3,14783	3544
3,14850	3524
3,14917	3504
3,14983	3483
3,15050	3462
3,15117	3441
3,15183	3419
3,15250	3397
3,15317	3375
3,15383	3353
3,15450	3330
3,15517	3307
3,15583	3284
3,15650	3260
3,15717	3236
3,15783	3212
3,15850	3188
3,15917	3164
3,15983	3140
3,16050	3115
3,16117	3090
3,16183	3065
3,16250	3040
3,16317	3015
3,16383	2989
3,16450	2964
3,16517	2938
3,16583	2913
3,16650	2887
3,16717	2861
3,16783	2835
3,16850	2809
3,16917	2783
3,16983	2757
3,17050	2731
3,17117	2705
3,17183	2679
3,17250	2653
3,17317	2627
3,17383	2601
3,17450	2575
3,17517	2549
3,17583	2523
3,17650	2497
3,17717	2471
3,17783	2446
3,17850	2420
3,17917	2394
3,17983	2369
3,18050	2344
3,18117	2318
3,18183	2293
3,18250	2268
3,18317	2243
3,18383	2219
3,18450	2194
3,18517	2169
3,18583	2145
3,18650	2121
3,18717	2097
3,18783	2073
3,18850	2049
3,18917	2026
3,18983	2002
3,19050	1979
3,19117	1956
3,19183	1933
3,19250	1910
3,19317	1888
3,19383	1866
3,19450	1843
3,19517	1822
3,19583	1800
3,19650	1778
3,19717	1757
3,19783	1736
3,19850	1715
3,19917	1694
3,19983	1674
3,20050	1653
3,20117	1633
3,20183	1613
3,20250	1593
3,20317	1574
3,20383	1555
3,20450	1536
3,20517	1517
3,20583	1498
3,20650	1480
3,20717	1461
3,20783	1443
3,20850	1425
3,20917	1408
3,20983	1390
3,21050	1373
3,21117	1356
3,21183	1339
3,21250	1323
3,21317	1306
3,21383	1290
3,21450	1274
3,21517	1258
3,21583	1243
3,21650	1227
3,21717	1212
3,21783	1197
3,21850	1182
3,21917	1168
3,21983	1153
3,22050	1139
3,22117	1125
3,22183	1111
3,22250	1097
3,22317	1084
3,22383	1071
3,22450	1058
3,22517	1045
3,22583	1032
3,22650	1019
3,22717	1007
3,22783	994
3,22850	982
3,22917	970
3,22983	959
3,23050	947
3,23117	935
3,23183	924
3,23250	913
3,23317	902
3,23383	891
3,23450	881
3,23517	870
3,23583	860
3,23650	849
3,23717	839
3,23783	829
3,23850	819
3,23917	810
3,23983	800
3,24050	791
3,24117	782
3,24183	772
3,24250	763
3,24317	755
3,24383	746
3,24450	737
3,24517	729
3,24583	720
3,24650	712
3,24717	704
3,24783	696
3,24850	688
3,24917	680
3,24983	672
3,25050	665
3,25117	657
3,25183	650
3,25250	643
3,25317	635
3,25383	628
3,25450	621
3,25517	614
3,25583	608
3,25650	601
3,25717	594
3,25783	588
3,25850	582
3,25917	575
3,25983	569
3,26050	563
3,26117	557
3,26183	551
3,26250	545
3,26317	539
3,26383	533
3,26450	528
3,26517	522
3,26583	517
3,26650	511
3,26717	506
3,26783	501
3,26850	495
3,26917	490
3,26983	485
3,27050	480
3,27117	475
3,27183	470
3,27250	466
3,27317	461
3,27383	456
3,27450	452
3,27517	447
3,27583	443
3,27650	438
3,27717	434
3,27783	430
3,27850	425
3,27917	421
3,27983	417
3,28050	413
3,28117	409
3,28183	405
3,28250	401
3,28317	397
3,28383	393
3,28450	390
3,28517	386
3,28583	382
3,28650	379
3,28717	375
3,28783	371
3,28850	368
3,28917	364
3,28983	361
3,29050	358
3,29117	354
3,29183	351
3,29250	348
3,29317	345
3,29383	341
3,29450	338
3,29517	335
3,29583	332
3,29650	329
3,29717	326
3,29783	323
3,29850	320
3,29917	317
3,29983	315
3,30050	312
3,30117	309
3,30183	306
3,30250	304
3,30317	301
3,30383	298
3,30450	296
3,30517	293
3,30583	291
3,30650	288
3,30717	285
3,30783	283
3,30850	281
3,30917	278
3,30983	276
3,31050	273
3,31117	271
3,31183	269
3,31250	267
3,31317	264
3,31383	262
3,31450	260
3,31517	258
3,31583	255
3,31650	253
3,31717	251
3,31783	249
3,31850	247
3,31917	245
3,31983	243
3,32050	241
3,32117	239
3,32183	237
3,32250	235
3,32317	233
3,32383	231
3,32450	229
3,32517	228
3,32583	226
3,32650	224
3,32717	222
3,32783	220
3,32850	219
3,32917	217
3,32983	215
3,33050	213
3,33117	212
3,33183	210
3,33250	208
3,33317	207
3,33383	205
3,33450	203
3,33517	202
3,33583	200
3,33650	199
3,33717	197
3,33783	196
3,33850	194
3,33917	192
3,33983	191
3,34050	190
3,34117	188
3,34183	187
3,34250	185
3,34317	184
3,34383	182
3,34450	181
3,34517	180
3,34583	178
3,34650	177
3,34717	175
3,34783	174
3,34850	173
3,34917	172
3,34983	170
3,35050	169
3,35117	168
3,35183	166
3,35250	165
3,35317	164
3,35383	163
3,35450	161
3,35517	160
3,35583	159
3,35650	158
3,35717	157
3,35783	156
3,35850	154
3,35917	153
3,35983	152
3,36050	151
3,36117	150
3,36183	149
3,36250	148
3,36317	147
3,36383	146
3,36450	144
3,36517	143
3,36583	142
3,36650	141
3,36717	140
3,36783	139
3,36850	138
3,36917	137
3,36983	136
3,37050	135
3,37117	134
3,37183	133
3,37250	132
3,37317	131
3,37383	130
3,37450	130
3,37517	129
3,37583	128
3,37650	127
3,37717	126
3,37783	125
3,37850	124
3,37917	123
3,37983	122
3,38050	121
3,38117	121
3,38183	120
3,38250	119
3,38317	118
3,38383	117
3,38450	116
3,38517	116
3,38583	115
3,38650	114
3,38717	113
3,38783	112
3,38850	112
3,38917	111
3,38983	110
3,39050	109
3,39117	108
3,39183	108
3,39250	107
3,39317	106
3,39383	105
3,39450	105
3,39517	104
3,39583	103
3,39650	103
3,39717	102
3,39783	101
3,39850	100
3,39917	100
3,39983	99
3,40050	98
3,40117	98
3,40183	97
3,40250	96
3,40317	96
3,40383	95
3,40450	94
3,40517	94
3,40583	93
3,40650	92
3,40717	92
3,40783	91
3,40850	91
3,40917	90
3,40983	89
3,41050	89
3,41117	88
3,41183	88
3,41250	87
3,41317	86
3,41383	86
3,41450	85
3,41517	85
3,41583	84
3,41650	84
3,41717	83
3,41783	82
3,41850	82
3,41917	81
3,41983	81
3,42050	80
3,42117	80
3,42183	79
3,42250	79
3,42317	78
3,42383	78
3,42450	77
3,42517	77
3,42583	76
3,42650	75
3,42717	75
3,42783	74
3,42850	74
3,42917	73
3,42983	73
3,43050	73
3,43117	72
3,43183	72
3,43250	71
3,43317	71
3,43383	70
3,43450	70
3,43517	69
3,43583	69
3,43650	68
3,43717	68
3,43783	67
3,43850	67
3,43917	67
3,43983	66
3,44050	66
3,44117	65
3,44183	65
3,44250	64
3,44317	64
3,44383	64
3,44450	63
3,44517	63
3,44583	62
3,44650	62
3,44717	62
3,44783	61
3,44850	61
3,44917	60
3,44983	60
3,45050	60
3,45117	59
3,45183	59
3,45250	58
3,45317	58
3,45383	58
3,45450	57
3,45517	57
3,45583	57
3,45650	56
3,45717	56
3,45783	55
3,45850	55
3,45917	55
3,45983	54
3,46050	54
3,46117	54
3,46183	53
3,46250	53
3,46317	53
3,46383	52
3,46450	52
3,46517	52
3,46583	51
3,46650	51
3,46717	51
3,46783	50
3,46850	50
3,46917	50
3,46983	49
3,47050	49
3,47117	49
3,47183	48
3,47250	48
3,47317	48
3,47383	48
3,47450	47
3,47517	47
3,47583	47
3,47650	46
3,47717	46
3,47783	46
3,47850	45
3,47917	45
3,47983	45
3,48050	45
3,48117	44
3,48183	44
3,48250	44
3,48317	44
3,48383	43
3,48450	43
3,48517	43
3,48583	42
3,48650	42
3,48717	42
3,48783	42
3,48850	41
3,48917	41
3,48983	41
3,49050	41
3,49117	40
3,49183	40
3,49250	40
3,49317	40
3,49383	39
3,49450	39
3,49517	39
3,49583	39
3,49650	38
3,49717	38
3,49783	38
3,49850	38
3,49917	38
3,49983	37
3,50050	37
3,50117	37
3,50183	37
3,50250	36
3,50317	36
3,50383	36
3,50450	36
3,50517	36
3,50583	35
3,50650	35
3,50717	35
3,50783	35
3,50850	34
3,50917	34
3,50983	34
3,51050	34
3,51117	34
3,51183	33
3,51250	33
3,51317	33
3,51383	33
3,51450	33
3,51517	32
3,51583	32
3,51650	32
3,51717	32
3,51783	32
3,51850	31
3,51917	31
3,51983	31
3,52050	31
3,52117	31
3,52183	30
3,52250	30
3,52317	30
3,52383	30
3,52450	30
3,52517	29
3,52583	29
3,52650	29
3,52717	29
3,52783	29
3,52850	29
3,52917	28
3,52983	28
3,53050	28
3,53117	28
3,53183	28
3,53250	28
3,53317	27
3,53383	27
3,53450	27
3,53517	27
3,53583	27
3,53650	27
3,53717	26
3,53783	26
3,53850	26
3,53917	26
3,53983	26
3,54050	26
3,54117	25
3,54183	25
3,54250	25
3,54317	25
3,54383	25
3,54450	25
3,54517	25
3,54583	24
3,54650	24
3,54717	24
3,54783	24
3,54850	24
3,54917	24
3,54983	23
3,55050	23
3,55117	23
3,55183	23
3,55250	23
3,55317	23
3,55383	23
3,55450	22
3,55517	22
3,55583	22
3,55650	22
3,55717	22
3,55783	22
3,55850	22
3,55917	22
3,55983	21
3,56050	21
3,56117	21
3,56183	21
3,56250	21
3,56317	21
3,56383	21
3,56450	21
3,56517	20
3,56583	20
3,56650	20
3,56717	20
3,56783	20
3,56850	20
3,56917	20
3,56983	20
3,57050	20
3,57117	19
3,57183	19
3,57250	19
3,57317	19
3,57383	19
3,57450	19
3,57517	19
3,57583	19
3,57650	19
3,57717	18
3,57783	18
3,57850	18
3,57917	18
3,57983	18
3,58050	18
3,58117	18
3,58183	18
3,58250	18
3,58317	18
3,58383	17
3,58450	17
3,58517	17
3,58583	17
3,58650	17
3,58717	17
3,58783	17
3,58850	17
3,58917	17
3,58983	17
3,59050	16
3,59117	16
3,59183	16
3,59250	16
3,59317	16
3,59383	16
3,59450	16
3,59517	16
3,59583	16
3,59650	16
3,59717	16
3,59783	16
3,59850	15
3,59917	15
3,59983	15
3,60050	15
3,60117	15
3,60183	15
3,60250	15
3,60317	15
3,60383	15
3,60450	15
3,60517	15
3,60583	14
3,60650	14
3,60717	14
3,60783	14
3,60850	14
3,60917	14
3,60983	14
3,61050	14
3,61117	14
3,61183	14
3,61250	14
3,61317	14
3,61383	13
3,61450	13
3,61517	13
3,61583	13
3,61650	13
3,61717	13
3,61783	13
3,61850	13
3,61917	13
3,61983	13
3,62050	13
3,62117	13
3,62183	13
3,62250	12
3,62317	12
3,62383	12
3,62450	12
3,62517	12
3,62583	12
3,62650	12
3,62717	12
3,62783	12
3,62850	12
3,62917	12
3,62983	12
3,63050	12
3,63117	11
3,63183	11
3,63250	11
3,63317	11
3,63383	11
3,63450	11
3,63517	11
3,63583	11
3,63650	11
3,63717	11
3,63783	11
3,63850	11
3,63917	11
3,63983	11
3,64050	10
3,64117	10
3,64183	10
3,64250	10
3,64317	10
3,64383	10
3,64450	10
3,64517	10
3,64583	10
3,64650	10
3,64717	10
3,64783	10
3,64850	10
3,64917	10
3,64983	10
3,65050	10
3,65117	9
3,65183	9
3,65250	9
3,65317	9
3,65383	9
3,65450	9
3,65517	9
3,65583	9
3,65650	9
3,65717	9
3,65783	9
3,65850	9
3,65917	9
3,65983	9
3,66050	9
3,66117	9
3,66183	9
3,66250	9
3,66317	8
3,66383	8
3,66450	8
3,66517	8
3,66583	8
3,66650	8
3,66717	8
3,66783	8
3,66850	8
3,66917	8
3,66983	8
3,67050	8
3,67117	8
3,67183	8
3,67250	8
3,67317	8
3,67383	8
3,67450	8
3,67517	8
3,67583	8
3,67650	8
3,67717	7
3,67783	7
3,67850	7
3,67917	7
3,67983	7
3,68050	7
3,68117	7
3,68183	7
3,68250	7
3,68317	7
3,68383	7
3,68450	7
3,68517	7
3,68583	7
3,68650	7
3,68717	7
3,68783	7
3,68850	7
3,68917	7
3,68983	7
3,69050	7
3,69117	7
3,69183	7
3,69250	7
3,69317	7
3,69383	6
3,69450	6
3,69517	6
3,69583	6
3,69650	6
3,69717	6
3,69783	6
3,69850	6
3,69917	6
3,69983	6
3,70050	6
3,70117	6
3,70183	6
3,70250	6
3,70317	6
3,70383	6
3,70450	6
3,70517	6
3,70583	6
3,70650	6
3,70717	6
3,70783	6
3,70850	6
3,70917	6
3,70983	6
3,71050	6
3,71117	6
3,71183	6
3,71250	6
3,71317	6
3,71383	6
3,71450	6
3,71517	5
3,71583	5
3,71650	5
3,71717	5
3,71783	5
3,71850	5
3,71917	5
3,71983	5
3,72050	5
3,72117	5
3,72183	5
3,72250	5
3,72317	5
3,72383	5
3,72450	5
3,72517	5
3,72583	5
3,72650	5
3,72717	5
3,72783	5
3,72850	5
3,72917	5
3,72983	5
3,73050	5
3,73117	5
3,73183	5
3,73250	5
3,73317	5
3,73383	5
3,73450	5
3,73517	4
3,73583	4
3,73650	4
3,73717	4
3,73783	4
3,73850	4
3,73917	4
3,73983	4
3,74050	4
3,74117	4
3,74183	4
3,74250	4
3,74317	4
3,74383	4
3,74450	4
3,74517	4
3,74583	4
3,74650	4
3,74717	4
3,74783	4
3,74850	4
3,74917	4
3,74983	4
3,75050	4
3,75117	4
3,75183	4
3,75250	4
3,75317	4
3,75383	4
3,75450	4
3,75517	4
3,75583	4
3,75650	4
3,75717	4
3,75783	4
3,75850	4
3,75917	4
3,75983	4
3,76050	4
3,76117	4
3,76183	3
3,76250	3
3,76317	3
3,76383	3
3,76450	3
3,76517	3
3,76583	3
3,76650	3
3,76717	3
3,76783	3
3,76850	3
3,76917	3
3,76983	3
3,77050	3
3,77117	3
3,77183	3
3,77250	3
3,77317	3
3,77383	3
3,77450	3
3,77517	3
3,77583	3
3,77650	3
3,77717	3
3,77783	3
3,77850	3
3,77917	3
3,77983	3
3,78050	3
3,78117	3
3,78183	3
3,78250	3
3,78317	3
3,78383	3
3,78450	3
3,78517	3
3,78583	3
3,78650	3
3,78717	3
3,78783	3
3,78850	3
3,78917	3
3,78983	3
3,79050	3
3,79117	3
3,79183	3
3,79250	3
3,79317	3
3,79383	2
3,79450	2
3,79517	2
3,79583	2
3,79650	2
3,79717	2
3,79783	2
3,79850	2
3,79917	2
3,79983	2
3,80050	2
3,80117	2
3,80183	2
3,80250	2
3,80317	2
3,80383	2
3,80450	2
3,80517	2
3,80583	2
3,80650	2
3,80717	2
3,80783	2
3,80850	2
3,80917	2
3,80983	2
3,81050	2
3,81117	2
3,81183	2
3,81250	2
3,81317	2
3,81383	2
3,81450	2
3,81517	2
3,81583	2
3,81650	2
3,81717	2
3,81783	2
3,81850	2
3,81917	2
3,81983	2
3,82050	2
3,82117	2
3,82183	2
3,82250	2
3,82317	2
3,82383	2
3,82450	2
3,82517	2
3,82583	2
3,82650	2
3,82717	2
3,82783	2
3,82850	2
3,82917	2
3,82983	2
3,83050	2
3,83117	2
3,83183	2
3,83250	2
3,83317	2
3,83383	2
3,83450	1
3,83517	1
3,83583	1
3,83650	1
3,83717	1
3,83783	1
3,83850	1
3,83917	1
3,83983	1
3,84050	1
3,84117	1
3,84183	1
3,84250	1
3,84317	1
3,84383	1
3,84450	1
3,84517	1
3,84583	1
3,84650	1
3,84717	1
3,84783	1
3,84850	1
3,84917	1
3,84983	1
3,85050	1
3,85117	1
3,85183	1
3,85250	1
3,85317	1
3,85383	1
3,85450	1
3,85517	1
3,85583	1
3,85650	1
3,85717	1
3,85783	1
3,85850	1
3,85917	1
3,85983	1
3,86050	1
3,86117	1
3,86183	1
3,86250	1
3,86317	1
3,86383	1
3,86450	1
3,86517	1
3,86583	1
3,86650	1
3,86717	1
3,86783	1
3,86850	1
3,86917	1
3,86983	1
3,87050	1
3,87117	1
3,87183	1
3,87250	1
3,87317	0
3,87383	0
3,87450	0
3,87517	0
3,87583	0
3,87650	0
3,87717	0
3,87783	0
3,87850	0
3,87917	0
3,87983	0
3,88050	0
3,88117	0
3,88183	0
3,88250	0
3,88317	0
3,88383	0
3,88450	0
3,88517	0
3,88583	0
3,88650	0
3,88717	0
3,88783	0
3,88850	0
3,88917	0
3,88983	0
3,89050	0
3,89117	0
3,89183	0
3,89250	0
3,89317	0

[Chromatogram Additional (Ch1)]
Maximum	4056
Minimum	-2

