[Header]
Data File Name	D:\Praktikum\WS2020-2021\02122020\1-Butanol_80°.gcd
Output Date	02.12.2020
Output Time	16:40:47

[File Information]
Type	Data File
Generated	02.12.2020 15:27:27
Generated by	GCMS
Modified	02.12.2020 15:27:27
Modified by	GCMS

[Sample Information]
Operator Name	GCMS
Acquisition Date	02.12.2020 15:22:38
Type	Unknown
Level	1
Sample Name	1-Butanol_80°
Sample ID	1-Butanol_80°
ISTD Amount1	1
ISTD Amount2	1
ISTD Amount3	1
ISTD Amount4	1
ISTD Amount5	1
ISTD Amount6	1
ISTD Amount7	1
ISTD Amount8	1
ISTD Amount9	1
ISTD Amount10	1
ISTD Amount11	1
ISTD Amount12	1
ISTD Amount13	1
ISTD Amount14	1
ISTD Amount15	1
ISTD Amount16	1
Sample Amount	1
Dilution Factor	1
Vial#	1
Injection Volume	0
Injection Count	0
Bar Code	

[Original Files]
Data File	D:\Praktikum\WS2020-2021\02122020\1-Butanol_80°.gcd
Method File	D:\Praktikum\Alkohole GC-2014.gcm
Batch File	
Report Format File	D:\Praktikum\Praktikum.gcr

[File Comment]


[Configration]
Instrument Name	GC-2014
Instrument #	1
Line #	1

[Peak Table (Ch1)]
# of Peaks	2
Peak#	R.Time	I.Time	F.Time	Area	Height	A/H	Conc.	Mark	ID#	Name	k'	Plate #	Plate Ht.	Tailing	Resolution	Sep.Factor
1	0,644	0,462	1,223	2551	192	13,25	0,00000	   			0,000	61,026	0,000	1,848	0,000	0,000
2	4,290	3,463	4,755	77718	3148	24,69	0,00000	   			5,665	642,677	0,000	0,629	7,265	0,000

[Compound Results (Ch1)]
# of IDs	4
ID#	Name	R.Time	Area	Height	Conc.	Curve	3rd	2nd	1st	Constant
1	Luft	0,000	0	0	0,00000	Default					
2	Dreck	0,000	0	0	0,00000	Default					
3	Propanol	0,000	0	0	0,00000	Default					
4	Butanol	0,000	0	0	0,00000	Default					

[Group Results (Ch1)]
# of Groups	0

[Chromatogram (Ch1)]
Interval(msec)	40
# of Points	7163
Start Time(min)	0,000
End Time(min)	4,775
R.Time	Intensity
0,00000	-3
0,00067	-3
0,00133	-3
0,00200	-3
0,00267	-3
0,00333	-3
0,00400	-3
0,00467	-3
0,00533	-3
0,00600	-3
0,00667	-3
0,00733	-3
0,00800	-3
0,00867	-3
0,00933	-3
0,01000	-3
0,01067	-3
0,01133	-3
0,01200	-3
0,01267	-3
0,01333	-3
0,01400	-3
0,01467	-3
0,01533	-3
0,01600	-3
0,01667	-3
0,01733	-3
0,01800	-3
0,01867	-3
0,01933	-3
0,02000	-3
0,02067	-2
0,02133	-2
0,02200	-2
0,02267	-2
0,02333	-2
0,02400	-2
0,02467	-3
0,02533	-3
0,02600	-3
0,02667	-3
0,02733	-3
0,02800	-3
0,02867	-3
0,02933	-3
0,03000	-3
0,03067	-3
0,03133	-3
0,03200	-3
0,03267	-3
0,03333	-3
0,03400	-3
0,03467	-3
0,03533	-2
0,03600	-2
0,03667	-2
0,03733	-2
0,03800	-2
0,03867	-2
0,03933	-2
0,04000	-2
0,04067	-2
0,04133	-2
0,04200	-2
0,04267	-2
0,04333	-2
0,04400	-2
0,04467	-2
0,04533	-2
0,04600	-2
0,04667	-2
0,04733	-2
0,04800	-2
0,04867	-2
0,04933	-2
0,05000	-2
0,05067	-2
0,05133	-2
0,05200	-2
0,05267	-2
0,05333	-2
0,05400	-2
0,05467	-2
0,05533	-2
0,05600	-2
0,05667	-2
0,05733	-2
0,05800	-2
0,05867	-2
0,05933	-2
0,06000	-2
0,06067	-2
0,06133	-2
0,06200	-2
0,06267	-2
0,06333	-2
0,06400	-2
0,06467	-2
0,06533	-2
0,06600	-2
0,06667	-2
0,06733	-2
0,06800	-2
0,06867	-2
0,06933	-2
0,07000	-2
0,07067	-2
0,07133	-2
0,07200	-2
0,07267	-2
0,07333	-2
0,07400	-2
0,07467	-2
0,07533	-2
0,07600	-2
0,07667	-2
0,07733	-2
0,07800	-2
0,07867	-2
0,07933	-3
0,08000	-3
0,08067	-3
0,08133	-3
0,08200	-3
0,08267	-3
0,08333	-3
0,08400	-3
0,08467	-3
0,08533	-3
0,08600	-3
0,08667	-3
0,08733	-3
0,08800	-3
0,08867	-3
0,08933	-3
0,09000	-3
0,09067	-3
0,09133	-3
0,09200	-3
0,09267	-3
0,09333	-3
0,09400	-3
0,09467	-3
0,09533	-3
0,09600	-3
0,09667	-3
0,09733	-3
0,09800	-3
0,09867	-3
0,09933	-3
0,10000	-3
0,10067	-3
0,10133	-3
0,10200	-3
0,10267	-3
0,10333	-3
0,10400	-3
0,10467	-3
0,10533	-3
0,10600	-3
0,10667	-3
0,10733	-3
0,10800	-3
0,10867	-3
0,10933	-3
0,11000	-3
0,11067	-3
0,11133	-3
0,11200	-3
0,11267	-3
0,11333	-3
0,11400	-3
0,11467	-3
0,11533	-3
0,11600	-3
0,11667	-3
0,11733	-3
0,11800	-3
0,11867	-3
0,11933	-3
0,12000	-3
0,12067	-3
0,12133	-3
0,12200	-3
0,12267	-3
0,12333	-3
0,12400	-3
0,12467	-3
0,12533	-3
0,12600	-3
0,12667	-3
0,12733	-3
0,12800	-3
0,12867	-3
0,12933	-3
0,13000	-3
0,13067	-3
0,13133	-3
0,13200	-3
0,13267	-3
0,13333	-3
0,13400	-3
0,13467	-3
0,13533	-3
0,13600	-3
0,13667	-3
0,13733	-3
0,13800	-3
0,13867	-3
0,13933	-3
0,14000	-3
0,14067	-3
0,14133	-3
0,14200	-3
0,14267	-3
0,14333	-3
0,14400	-3
0,14467	-3
0,14533	-3
0,14600	-3
0,14667	-3
0,14733	-3
0,14800	-3
0,14867	-3
0,14933	-3
0,15000	-3
0,15067	-3
0,15133	-3
0,15200	-3
0,15267	-3
0,15333	-3
0,15400	-3
0,15467	-3
0,15533	-3
0,15600	-3
0,15667	-3
0,15733	-3
0,15800	-3
0,15867	-3
0,15933	-3
0,16000	-3
0,16067	-3
0,16133	-3
0,16200	-3
0,16267	-3
0,16333	-3
0,16400	-3
0,16467	-3
0,16533	-3
0,16600	-3
0,16667	-3
0,16733	-3
0,16800	-3
0,16867	-3
0,16933	-3
0,17000	-3
0,17067	-3
0,17133	-3
0,17200	-3
0,17267	-3
0,17333	-3
0,17400	-3
0,17467	-3
0,17533	-3
0,17600	-3
0,17667	-3
0,17733	-3
0,17800	-3
0,17867	-3
0,17933	-3
0,18000	-3
0,18067	-3
0,18133	-3
0,18200	-3
0,18267	-3
0,18333	-3
0,18400	-3
0,18467	-3
0,18533	-3
0,18600	-3
0,18667	-3
0,18733	-3
0,18800	-3
0,18867	-3
0,18933	-3
0,19000	-3
0,19067	-3
0,19133	-3
0,19200	-3
0,19267	-3
0,19333	-3
0,19400	-3
0,19467	-3
0,19533	-3
0,19600	-3
0,19667	-3
0,19733	-3
0,19800	-3
0,19867	-3
0,19933	-3
0,20000	-3
0,20067	-3
0,20133	-3
0,20200	-3
0,20267	-3
0,20333	-3
0,20400	-3
0,20467	-3
0,20533	-3
0,20600	-3
0,20667	-3
0,20733	-3
0,20800	-3
0,20867	-3
0,20933	-3
0,21000	-3
0,21067	-3
0,21133	-3
0,21200	-3
0,21267	-3
0,21333	-3
0,21400	-3
0,21467	-3
0,21533	-3
0,21600	-3
0,21667	-3
0,21733	-3
0,21800	-3
0,21867	-3
0,21933	-3
0,22000	-3
0,22067	-3
0,22133	-3
0,22200	-3
0,22267	-3
0,22333	-3
0,22400	-3
0,22467	-3
0,22533	-3
0,22600	-3
0,22667	-3
0,22733	-3
0,22800	-3
0,22867	-3
0,22933	-3
0,23000	-3
0,23067	-3
0,23133	-3
0,23200	-3
0,23267	-3
0,23333	-3
0,23400	-3
0,23467	-3
0,23533	-3
0,23600	-3
0,23667	-3
0,23733	-3
0,23800	-3
0,23867	-3
0,23933	-3
0,24000	-3
0,24067	-3
0,24133	-3
0,24200	-3
0,24267	-3
0,24333	-3
0,24400	-3
0,24467	-3
0,24533	-3
0,24600	-3
0,24667	-3
0,24733	-3
0,24800	-3
0,24867	-3
0,24933	-3
0,25000	-3
0,25067	-3
0,25133	-3
0,25200	-3
0,25267	-3
0,25333	-3
0,25400	-3
0,25467	-3
0,25533	-3
0,25600	-3
0,25667	-3
0,25733	-3
0,25800	-3
0,25867	-3
0,25933	-3
0,26000	-3
0,26067	-3
0,26133	-3
0,26200	-3
0,26267	-3
0,26333	-3
0,26400	-3
0,26467	-3
0,26533	-3
0,26600	-3
0,26667	-3
0,26733	-3
0,26800	-3
0,26867	-3
0,26933	-3
0,27000	-3
0,27067	-3
0,27133	-3
0,27200	-3
0,27267	-3
0,27333	-3
0,27400	-3
0,27467	-3
0,27533	-3
0,27600	-3
0,27667	-3
0,27733	-3
0,27800	-3
0,27867	-3
0,27933	-3
0,28000	-3
0,28067	-3
0,28133	-3
0,28200	-3
0,28267	-3
0,28333	-3
0,28400	-3
0,28467	-3
0,28533	-3
0,28600	-3
0,28667	-3
0,28733	-3
0,28800	-3
0,28867	-3
0,28933	-3
0,29000	-3
0,29067	-3
0,29133	-3
0,29200	-3
0,29267	-3
0,29333	-3
0,29400	-3
0,29467	-3
0,29533	-3
0,29600	-3
0,29667	-3
0,29733	-3
0,29800	-3
0,29867	-3
0,29933	-3
0,30000	-3
0,30067	-3
0,30133	-3
0,30200	-3
0,30267	-3
0,30333	-3
0,30400	-3
0,30467	-3
0,30533	-3
0,30600	-3
0,30667	-3
0,30733	-3
0,30800	-3
0,30867	-3
0,30933	-3
0,31000	-3
0,31067	-3
0,31133	-3
0,31200	-3
0,31267	-3
0,31333	-3
0,31400	-3
0,31467	-3
0,31533	-3
0,31600	-3
0,31667	-3
0,31733	-3
0,31800	-3
0,31867	-3
0,31933	-3
0,32000	-3
0,32067	-3
0,32133	-3
0,32200	-3
0,32267	-3
0,32333	-3
0,32400	-3
0,32467	-3
0,32533	-3
0,32600	-3
0,32667	-3
0,32733	-3
0,32800	-3
0,32867	-3
0,32933	-3
0,33000	-3
0,33067	-3
0,33133	-3
0,33200	-3
0,33267	-3
0,33333	-3
0,33400	-3
0,33467	-3
0,33533	-3
0,33600	-3
0,33667	-3
0,33733	-3
0,33800	-3
0,33867	-3
0,33933	-3
0,34000	-3
0,34067	-3
0,34133	-3
0,34200	-3
0,34267	-3
0,34333	-3
0,34400	-3
0,34467	-3
0,34533	-3
0,34600	-3
0,34667	-3
0,34733	-3
0,34800	-3
0,34867	-3
0,34933	-3
0,35000	-3
0,35067	-3
0,35133	-3
0,35200	-3
0,35267	-3
0,35333	-3
0,35400	-3
0,35467	-3
0,35533	-3
0,35600	-3
0,35667	-3
0,35733	-3
0,35800	-3
0,35867	-3
0,35933	-3
0,36000	-3
0,36067	-3
0,36133	-3
0,36200	-3
0,36267	-3
0,36333	-3
0,36400	-3
0,36467	-3
0,36533	-3
0,36600	-3
0,36667	-3
0,36733	-3
0,36800	-3
0,36867	-3
0,36933	-3
0,37000	-3
0,37067	-3
0,37133	-3
0,37200	-3
0,37267	-3
0,37333	-3
0,37400	-3
0,37467	-3
0,37533	-3
0,37600	-3
0,37667	-3
0,37733	-3
0,37800	-3
0,37867	-3
0,37933	-3
0,38000	-3
0,38067	-3
0,38133	-3
0,38200	-3
0,38267	-3
0,38333	-3
0,38400	-3
0,38467	-3
0,38533	-3
0,38600	-3
0,38667	-3
0,38733	-3
0,38800	-3
0,38867	-3
0,38933	-3
0,39000	-3
0,39067	-3
0,39133	-3
0,39200	-3
0,39267	-3
0,39333	-3
0,39400	-3
0,39467	-3
0,39533	-3
0,39600	-3
0,39667	-3
0,39733	-3
0,39800	-3
0,39867	-3
0,39933	-3
0,40000	-3
0,40067	-3
0,40133	-3
0,40200	-3
0,40267	-3
0,40333	-3
0,40400	-3
0,40467	-3
0,40533	-3
0,40600	-3
0,40667	-3
0,40733	-3
0,40800	-3
0,40867	-3
0,40933	-3
0,41000	-3
0,41067	-3
0,41133	-3
0,41200	-3
0,41267	-3
0,41333	-3
0,41400	-3
0,41467	-3
0,41533	-3
0,41600	-3
0,41667	-3
0,41733	-3
0,41800	-3
0,41867	-3
0,41933	-3
0,42000	-3
0,42067	-3
0,42133	-3
0,42200	-3
0,42267	-3
0,42333	-3
0,42400	-3
0,42467	-2
0,42533	-2
0,42600	-2
0,42667	-2
0,42733	-2
0,42800	-2
0,42867	-2
0,42933	-2
0,43000	-2
0,43067	-2
0,43133	-2
0,43200	-2
0,43267	-2
0,43333	-2
0,43400	-2
0,43467	-2
0,43533	-2
0,43600	-2
0,43667	-2
0,43733	-2
0,43800	-2
0,43867	-2
0,43933	-2
0,44000	-2
0,44067	-2
0,44133	-2
0,44200	-2
0,44267	-2
0,44333	-2
0,44400	-2
0,44467	-2
0,44533	-2
0,44600	-2
0,44667	-2
0,44733	-2
0,44800	-2
0,44867	-2
0,44933	-2
0,45000	-2
0,45067	-2
0,45133	-2
0,45200	-2
0,45267	-2
0,45333	-2
0,45400	-2
0,45467	-2
0,45533	-2
0,45600	-2
0,45667	-2
0,45733	-2
0,45800	-2
0,45867	-2
0,45933	-2
0,46000	-2
0,46067	-2
0,46133	-2
0,46200	-2
0,46267	-2
0,46333	-2
0,46400	-2
0,46467	-2
0,46533	-2
0,46600	-2
0,46667	-2
0,46733	-2
0,46800	-2
0,46867	-2
0,46933	-2
0,47000	-2
0,47067	-2
0,47133	-2
0,47200	-2
0,47267	-2
0,47333	-2
0,47400	-2
0,47467	-2
0,47533	-2
0,47600	-2
0,47667	-2
0,47733	-2
0,47800	-2
0,47867	-2
0,47933	-2
0,48000	-2
0,48067	-2
0,48133	-2
0,48200	-2
0,48267	-2
0,48333	-2
0,48400	-2
0,48467	-2
0,48533	-2
0,48600	-1
0,48667	-1
0,48733	-1
0,48800	-1
0,48867	-1
0,48933	-1
0,49000	-1
0,49067	-1
0,49133	-1
0,49200	-1
0,49267	-0
0,49333	-0
0,49400	-0
0,49467	0
0,49533	0
0,49600	0
0,49667	1
0,49733	1
0,49800	1
0,49867	1
0,49933	1
0,50000	2
0,50067	2
0,50133	2
0,50200	2
0,50267	3
0,50333	3
0,50400	3
0,50467	4
0,50533	4
0,50600	4
0,50667	5
0,50733	5
0,50800	5
0,50867	6
0,50933	6
0,51000	7
0,51067	7
0,51133	7
0,51200	8
0,51267	8
0,51333	9
0,51400	9
0,51467	10
0,51533	10
0,51600	11
0,51667	12
0,51733	12
0,51800	13
0,51867	13
0,51933	14
0,52000	15
0,52067	15
0,52133	16
0,52200	17
0,52267	17
0,52333	18
0,52400	19
0,52467	20
0,52533	21
0,52600	21
0,52667	22
0,52733	23
0,52800	24
0,52867	25
0,52933	26
0,53000	26
0,53067	27
0,53133	28
0,53200	29
0,53267	30
0,53333	31
0,53400	32
0,53467	33
0,53533	34
0,53600	35
0,53667	36
0,53733	37
0,53800	38
0,53867	39
0,53933	41
0,54000	42
0,54067	43
0,54133	44
0,54200	45
0,54267	46
0,54333	48
0,54400	49
0,54467	50
0,54533	51
0,54600	52
0,54667	54
0,54733	55
0,54800	56
0,54867	57
0,54933	59
0,55000	60
0,55067	61
0,55133	63
0,55200	64
0,55267	65
0,55333	67
0,55400	68
0,55467	69
0,55533	71
0,55600	72
0,55667	73
0,55733	75
0,55800	76
0,55867	77
0,55933	79
0,56000	80
0,56067	82
0,56133	83
0,56200	84
0,56267	86
0,56333	87
0,56400	89
0,56467	90
0,56533	91
0,56600	93
0,56667	94
0,56733	96
0,56800	97
0,56867	99
0,56933	100
0,57000	101
0,57067	103
0,57133	104
0,57200	106
0,57267	107
0,57333	108
0,57400	110
0,57467	111
0,57533	112
0,57600	114
0,57667	115
0,57733	117
0,57800	118
0,57867	119
0,57933	121
0,58000	122
0,58067	123
0,58133	125
0,58200	126
0,58267	127
0,58333	128
0,58400	130
0,58467	131
0,58533	132
0,58600	134
0,58667	135
0,58733	136
0,58800	137
0,58867	138
0,58933	140
0,59000	141
0,59067	142
0,59133	143
0,59200	144
0,59267	146
0,59333	147
0,59400	148
0,59467	149
0,59533	150
0,59600	151
0,59667	152
0,59733	153
0,59800	154
0,59867	155
0,59933	156
0,60000	157
0,60067	158
0,60133	159
0,60200	160
0,60267	161
0,60333	162
0,60400	163
0,60467	164
0,60533	165
0,60600	166
0,60667	167
0,60733	168
0,60800	168
0,60867	169
0,60933	170
0,61000	171
0,61067	172
0,61133	172
0,61200	173
0,61267	174
0,61333	175
0,61400	175
0,61467	176
0,61533	177
0,61600	177
0,61667	178
0,61733	179
0,61800	179
0,61867	180
0,61933	180
0,62000	181
0,62067	181
0,62133	182
0,62200	182
0,62267	183
0,62333	183
0,62400	184
0,62467	184
0,62533	185
0,62600	185
0,62667	186
0,62733	186
0,62800	186
0,62867	187
0,62933	187
0,63000	187
0,63067	188
0,63133	188
0,63200	188
0,63267	189
0,63333	189
0,63400	189
0,63467	189
0,63533	189
0,63600	190
0,63667	190
0,63733	190
0,63800	190
0,63867	190
0,63933	190
0,64000	190
0,64067	190
0,64133	190
0,64200	190
0,64267	190
0,64333	191
0,64400	191
0,64467	190
0,64533	190
0,64600	190
0,64667	190
0,64733	190
0,64800	190
0,64867	190
0,64933	190
0,65000	190
0,65067	190
0,65133	190
0,65200	189
0,65267	189
0,65333	189
0,65400	189
0,65467	189
0,65533	188
0,65600	188
0,65667	188
0,65733	188
0,65800	187
0,65867	187
0,65933	187
0,66000	187
0,66067	186
0,66133	186
0,66200	186
0,66267	185
0,66333	185
0,66400	185
0,66467	184
0,66533	184
0,66600	183
0,66667	183
0,66733	183
0,66800	182
0,66867	182
0,66933	181
0,67000	181
0,67067	181
0,67133	180
0,67200	180
0,67267	179
0,67333	179
0,67400	178
0,67467	178
0,67533	177
0,67600	177
0,67667	176
0,67733	176
0,67800	175
0,67867	174
0,67933	174
0,68000	173
0,68067	173
0,68133	172
0,68200	172
0,68267	171
0,68333	171
0,68400	170
0,68467	169
0,68533	169
0,68600	168
0,68667	168
0,68733	167
0,68800	166
0,68867	166
0,68933	165
0,69000	164
0,69067	164
0,69133	163
0,69200	163
0,69267	162
0,69333	161
0,69400	161
0,69467	160
0,69533	159
0,69600	159
0,69667	158
0,69733	157
0,69800	157
0,69867	156
0,69933	155
0,70000	155
0,70067	154
0,70133	153
0,70200	153
0,70267	152
0,70333	151
0,70400	151
0,70467	150
0,70533	149
0,70600	149
0,70667	148
0,70733	147
0,70800	146
0,70867	146
0,70933	145
0,71000	144
0,71067	144
0,71133	143
0,71200	142
0,71267	142
0,71333	141
0,71400	140
0,71467	140
0,71533	139
0,71600	138
0,71667	137
0,71733	137
0,71800	136
0,71867	135
0,71933	135
0,72000	134
0,72067	133
0,72133	132
0,72200	132
0,72267	131
0,72333	130
0,72400	130
0,72467	129
0,72533	128
0,72600	128
0,72667	127
0,72733	126
0,72800	126
0,72867	125
0,72933	124
0,73000	123
0,73067	123
0,73133	122
0,73200	121
0,73267	121
0,73333	120
0,73400	119
0,73467	119
0,73533	118
0,73600	117
0,73667	117
0,73733	116
0,73800	115
0,73867	115
0,73933	114
0,74000	113
0,74067	113
0,74133	112
0,74200	111
0,74267	111
0,74333	110
0,74400	110
0,74467	109
0,74533	108
0,74600	108
0,74667	107
0,74733	106
0,74800	106
0,74867	105
0,74933	104
0,75000	104
0,75067	103
0,75133	103
0,75200	102
0,75267	101
0,75333	101
0,75400	100
0,75467	100
0,75533	99
0,75600	98
0,75667	98
0,75733	97
0,75800	97
0,75867	96
0,75933	95
0,76000	95
0,76067	94
0,76133	94
0,76200	93
0,76267	93
0,76333	92
0,76400	91
0,76467	91
0,76533	90
0,76600	90
0,76667	89
0,76733	89
0,76800	88
0,76867	88
0,76933	87
0,77000	87
0,77067	86
0,77133	86
0,77200	85
0,77267	84
0,77333	84
0,77400	83
0,77467	83
0,77533	82
0,77600	82
0,77667	81
0,77733	81
0,77800	80
0,77867	80
0,77933	79
0,78000	79
0,78067	78
0,78133	78
0,78200	77
0,78267	77
0,78333	76
0,78400	76
0,78467	75
0,78533	75
0,78600	74
0,78667	74
0,78733	73
0,78800	73
0,78867	73
0,78933	72
0,79000	72
0,79067	71
0,79133	71
0,79200	70
0,79267	70
0,79333	69
0,79400	69
0,79467	68
0,79533	68
0,79600	68
0,79667	67
0,79733	67
0,79800	66
0,79867	66
0,79933	65
0,80000	65
0,80067	65
0,80133	64
0,80200	64
0,80267	63
0,80333	63
0,80400	63
0,80467	62
0,80533	62
0,80600	61
0,80667	61
0,80733	61
0,80800	60
0,80867	60
0,80933	59
0,81000	59
0,81067	59
0,81133	58
0,81200	58
0,81267	57
0,81333	57
0,81400	57
0,81467	56
0,81533	56
0,81600	56
0,81667	55
0,81733	55
0,81800	55
0,81867	54
0,81933	54
0,82000	53
0,82067	53
0,82133	53
0,82200	52
0,82267	52
0,82333	52
0,82400	51
0,82467	51
0,82533	51
0,82600	50
0,82667	50
0,82733	50
0,82800	49
0,82867	49
0,82933	49
0,83000	49
0,83067	48
0,83133	48
0,83200	48
0,83267	47
0,83333	47
0,83400	47
0,83467	46
0,83533	46
0,83600	46
0,83667	45
0,83733	45
0,83800	45
0,83867	45
0,83933	44
0,84000	44
0,84067	44
0,84133	43
0,84200	43
0,84267	43
0,84333	43
0,84400	42
0,84467	42
0,84533	42
0,84600	42
0,84667	41
0,84733	41
0,84800	41
0,84867	41
0,84933	40
0,85000	40
0,85067	40
0,85133	39
0,85200	39
0,85267	39
0,85333	39
0,85400	38
0,85467	38
0,85533	38
0,85600	38
0,85667	37
0,85733	37
0,85800	37
0,85867	37
0,85933	36
0,86000	36
0,86067	36
0,86133	36
0,86200	36
0,86267	35
0,86333	35
0,86400	35
0,86467	35
0,86533	34
0,86600	34
0,86667	34
0,86733	34
0,86800	34
0,86867	33
0,86933	33
0,87000	33
0,87067	33
0,87133	32
0,87200	32
0,87267	32
0,87333	32
0,87400	32
0,87467	31
0,87533	31
0,87600	31
0,87667	31
0,87733	31
0,87800	30
0,87867	30
0,87933	30
0,88000	30
0,88067	30
0,88133	29
0,88200	29
0,88267	29
0,88333	29
0,88400	29
0,88467	28
0,88533	28
0,88600	28
0,88667	28
0,88733	28
0,88800	28
0,88867	27
0,88933	27
0,89000	27
0,89067	27
0,89133	27
0,89200	26
0,89267	26
0,89333	26
0,89400	26
0,89467	26
0,89533	26
0,89600	25
0,89667	25
0,89733	25
0,89800	25
0,89867	25
0,89933	25
0,90000	24
0,90067	24
0,90133	24
0,90200	24
0,90267	24
0,90333	24
0,90400	23
0,90467	23
0,90533	23
0,90600	23
0,90667	23
0,90733	23
0,90800	22
0,90867	22
0,90933	22
0,91000	22
0,91067	22
0,91133	22
0,91200	22
0,91267	21
0,91333	21
0,91400	21
0,91467	21
0,91533	21
0,91600	21
0,91667	21
0,91733	20
0,91800	20
0,91867	20
0,91933	20
0,92000	20
0,92067	20
0,92133	20
0,92200	19
0,92267	19
0,92333	19
0,92400	19
0,92467	19
0,92533	19
0,92600	19
0,92667	18
0,92733	18
0,92800	18
0,92867	18
0,92933	18
0,93000	18
0,93067	18
0,93133	18
0,93200	17
0,93267	17
0,93333	17
0,93400	17
0,93467	17
0,93533	17
0,93600	17
0,93667	17
0,93733	16
0,93800	16
0,93867	16
0,93933	16
0,94000	16
0,94067	16
0,94133	16
0,94200	16
0,94267	15
0,94333	15
0,94400	15
0,94467	15
0,94533	15
0,94600	15
0,94667	15
0,94733	15
0,94800	15
0,94867	14
0,94933	14
0,95000	14
0,95067	14
0,95133	14
0,95200	14
0,95267	14
0,95333	14
0,95400	14
0,95467	14
0,95533	13
0,95600	13
0,95667	13
0,95733	13
0,95800	13
0,95867	13
0,95933	13
0,96000	13
0,96067	13
0,96133	13
0,96200	12
0,96267	12
0,96333	12
0,96400	12
0,96467	12
0,96533	12
0,96600	12
0,96667	12
0,96733	12
0,96800	12
0,96867	12
0,96933	11
0,97000	11
0,97067	11
0,97133	11
0,97200	11
0,97267	11
0,97333	11
0,97400	11
0,97467	11
0,97533	11
0,97600	11
0,97667	11
0,97733	10
0,97800	10
0,97867	10
0,97933	10
0,98000	10
0,98067	10
0,98133	10
0,98200	10
0,98267	10
0,98333	10
0,98400	10
0,98467	10
0,98533	10
0,98600	9
0,98667	9
0,98733	9
0,98800	9
0,98867	9
0,98933	9
0,99000	9
0,99067	9
0,99133	9
0,99200	9
0,99267	9
0,99333	9
0,99400	9
0,99467	9
0,99533	9
0,99600	8
0,99667	8
0,99733	8
0,99800	8
0,99867	8
0,99933	8
1,00000	8
1,00067	8
1,00133	8
1,00200	8
1,00267	8
1,00333	8
1,00400	8
1,00467	8
1,00533	8
1,00600	8
1,00667	7
1,00733	7
1,00800	7
1,00867	7
1,00933	7
1,01000	7
1,01067	7
1,01133	7
1,01200	7
1,01267	7
1,01333	7
1,01400	7
1,01467	7
1,01533	7
1,01600	7
1,01667	7
1,01733	6
1,01800	6
1,01867	6
1,01933	6
1,02000	6
1,02067	6
1,02133	6
1,02200	6
1,02267	6
1,02333	6
1,02400	6
1,02467	6
1,02533	6
1,02600	6
1,02667	6
1,02733	6
1,02800	6
1,02867	5
1,02933	5
1,03000	5
1,03067	5
1,03133	5
1,03200	5
1,03267	5
1,03333	5
1,03400	5
1,03467	5
1,03533	5
1,03600	5
1,03667	5
1,03733	5
1,03800	5
1,03867	5
1,03933	5
1,04000	5
1,04067	5
1,04133	5
1,04200	5
1,04267	5
1,04333	4
1,04400	4
1,04467	4
1,04533	4
1,04600	4
1,04667	4
1,04733	4
1,04800	4
1,04867	4
1,04933	4
1,05000	4
1,05067	4
1,05133	4
1,05200	4
1,05267	4
1,05333	4
1,05400	4
1,05467	4
1,05533	4
1,05600	4
1,05667	4
1,05733	4
1,05800	4
1,05867	4
1,05933	4
1,06000	4
1,06067	4
1,06133	4
1,06200	4
1,06267	3
1,06333	3
1,06400	3
1,06467	3
1,06533	3
1,06600	3
1,06667	3
1,06733	3
1,06800	3
1,06867	3
1,06933	3
1,07000	3
1,07067	3
1,07133	3
1,07200	3
1,07267	3
1,07333	3
1,07400	3
1,07467	3
1,07533	3
1,07600	3
1,07667	3
1,07733	3
1,07800	2
1,07867	2
1,07933	2
1,08000	2
1,08067	2
1,08133	2
1,08200	2
1,08267	2
1,08333	2
1,08400	2
1,08467	2
1,08533	2
1,08600	2
1,08667	2
1,08733	2
1,08800	2
1,08867	2
1,08933	2
1,09000	2
1,09067	2
1,09133	2
1,09200	2
1,09267	2
1,09333	2
1,09400	2
1,09467	2
1,09533	2
1,09600	2
1,09667	1
1,09733	1
1,09800	1
1,09867	1
1,09933	1
1,10000	1
1,10067	1
1,10133	1
1,10200	1
1,10267	1
1,10333	1
1,10400	1
1,10467	1
1,10533	1
1,10600	1
1,10667	1
1,10733	1
1,10800	1
1,10867	1
1,10933	1
1,11000	1
1,11067	1
1,11133	1
1,11200	1
1,11267	1
1,11333	1
1,11400	1
1,11467	1
1,11533	1
1,11600	1
1,11667	1
1,11733	1
1,11800	1
1,11867	1
1,11933	1
1,12000	1
1,12067	1
1,12133	1
1,12200	1
1,12267	1
1,12333	1
1,12400	1
1,12467	1
1,12533	1
1,12600	0
1,12667	0
1,12733	0
1,12800	0
1,12867	0
1,12933	0
1,13000	0
1,13067	0
1,13133	0
1,13200	0
1,13267	0
1,13333	0
1,13400	0
1,13467	0
1,13533	0
1,13600	0
1,13667	0
1,13733	0
1,13800	0
1,13867	0
1,13933	0
1,14000	0
1,14067	0
1,14133	0
1,14200	0
1,14267	0
1,14333	0
1,14400	0
1,14467	0
1,14533	0
1,14600	0
1,14667	-0
1,14733	-0
1,14800	-0
1,14867	-0
1,14933	-0
1,15000	-0
1,15067	-0
1,15133	-0
1,15200	-0
1,15267	-0
1,15333	-0
1,15400	-0
1,15467	-0
1,15533	-0
1,15600	-0
1,15667	-0
1,15733	-0
1,15800	-0
1,15867	-0
1,15933	-0
1,16000	-0
1,16067	-0
1,16133	-0
1,16200	-0
1,16267	-0
1,16333	-0
1,16400	-0
1,16467	-0
1,16533	-0
1,16600	-0
1,16667	-1
1,16733	-1
1,16800	-1
1,16867	-1
1,16933	-1
1,17000	-1
1,17067	-1
1,17133	-1
1,17200	-1
1,17267	-1
1,17333	-1
1,17400	-1
1,17467	-1
1,17533	-1
1,17600	-1
1,17667	-1
1,17733	-1
1,17800	-1
1,17867	-1
1,17933	-1
1,18000	-1
1,18067	-1
1,18133	-1
1,18200	-1
1,18267	-1
1,18333	-1
1,18400	-1
1,18467	-1
1,18533	-1
1,18600	-1
1,18667	-1
1,18733	-1
1,18800	-1
1,18867	-1
1,18933	-1
1,19000	-1
1,19067	-1
1,19133	-1
1,19200	-1
1,19267	-1
1,19333	-1
1,19400	-1
1,19467	-1
1,19533	-1
1,19600	-1
1,19667	-1
1,19733	-1
1,19800	-1
1,19867	-1
1,19933	-1
1,20000	-1
1,20067	-1
1,20133	-1
1,20200	-1
1,20267	-1
1,20333	-1
1,20400	-1
1,20467	-1
1,20533	-1
1,20600	-1
1,20667	-1
1,20733	-1
1,20800	-1
1,20867	-1
1,20933	-1
1,21000	-1
1,21067	-1
1,21133	-1
1,21200	-1
1,21267	-1
1,21333	-1
1,21400	-1
1,21467	-1
1,21533	-1
1,21600	-1
1,21667	-1
1,21733	-1
1,21800	-1
1,21867	-1
1,21933	-1
1,22000	-1
1,22067	-1
1,22133	-1
1,22200	-1
1,22267	-1
1,22333	-1
1,22400	-1
1,22467	-1
1,22533	-1
1,22600	-1
1,22667	-1
1,22733	-1
1,22800	-1
1,22867	-1
1,22933	-1
1,23000	-1
1,23067	-1
1,23133	-2
1,23200	-2
1,23267	-2
1,23333	-2
1,23400	-2
1,23467	-2
1,23533	-2
1,23600	-2
1,23667	-2
1,23733	-2
1,23800	-2
1,23867	-2
1,23933	-2
1,24000	-2
1,24067	-2
1,24133	-2
1,24200	-2
1,24267	-2
1,24333	-2
1,24400	-2
1,24467	-2
1,24533	-2
1,24600	-2
1,24667	-2
1,24733	-2
1,24800	-2
1,24867	-2
1,24933	-2
1,25000	-2
1,25067	-2
1,25133	-2
1,25200	-2
1,25267	-2
1,25333	-2
1,25400	-2
1,25467	-2
1,25533	-2
1,25600	-2
1,25667	-2
1,25733	-2
1,25800	-2
1,25867	-2
1,25933	-2
1,26000	-2
1,26067	-2
1,26133	-2
1,26200	-2
1,26267	-2
1,26333	-2
1,26400	-2
1,26467	-2
1,26533	-2
1,26600	-2
1,26667	-2
1,26733	-2
1,26800	-2
1,26867	-2
1,26933	-2
1,27000	-2
1,27067	-2
1,27133	-2
1,27200	-2
1,27267	-2
1,27333	-2
1,27400	-2
1,27467	-2
1,27533	-2
1,27600	-2
1,27667	-2
1,27733	-2
1,27800	-2
1,27867	-2
1,27933	-2
1,28000	-2
1,28067	-2
1,28133	-2
1,28200	-2
1,28267	-2
1,28333	-2
1,28400	-2
1,28467	-2
1,28533	-2
1,28600	-2
1,28667	-2
1,28733	-2
1,28800	-2
1,28867	-2
1,28933	-2
1,29000	-2
1,29067	-2
1,29133	-2
1,29200	-2
1,29267	-2
1,29333	-2
1,29400	-2
1,29467	-2
1,29533	-2
1,29600	-2
1,29667	-2
1,29733	-2
1,29800	-2
1,29867	-2
1,29933	-2
1,30000	-2
1,30067	-2
1,30133	-2
1,30200	-2
1,30267	-2
1,30333	-2
1,30400	-2
1,30467	-2
1,30533	-2
1,30600	-2
1,30667	-2
1,30733	-2
1,30800	-2
1,30867	-2
1,30933	-2
1,31000	-2
1,31067	-2
1,31133	-2
1,31200	-2
1,31267	-2
1,31333	-2
1,31400	-2
1,31467	-2
1,31533	-2
1,31600	-2
1,31667	-2
1,31733	-2
1,31800	-2
1,31867	-2
1,31933	-2
1,32000	-2
1,32067	-2
1,32133	-2
1,32200	-2
1,32267	-2
1,32333	-2
1,32400	-2
1,32467	-2
1,32533	-2
1,32600	-2
1,32667	-2
1,32733	-2
1,32800	-2
1,32867	-2
1,32933	-2
1,33000	-2
1,33067	-2
1,33133	-2
1,33200	-2
1,33267	-2
1,33333	-2
1,33400	-2
1,33467	-2
1,33533	-2
1,33600	-2
1,33667	-2
1,33733	-2
1,33800	-2
1,33867	-2
1,33933	-2
1,34000	-2
1,34067	-2
1,34133	-2
1,34200	-2
1,34267	-2
1,34333	-2
1,34400	-2
1,34467	-2
1,34533	-2
1,34600	-2
1,34667	-2
1,34733	-2
1,34800	-2
1,34867	-2
1,34933	-2
1,35000	-2
1,35067	-2
1,35133	-2
1,35200	-2
1,35267	-2
1,35333	-2
1,35400	-2
1,35467	-2
1,35533	-2
1,35600	-2
1,35667	-2
1,35733	-2
1,35800	-2
1,35867	-2
1,35933	-2
1,36000	-2
1,36067	-2
1,36133	-2
1,36200	-2
1,36267	-2
1,36333	-2
1,36400	-2
1,36467	-2
1,36533	-2
1,36600	-3
1,36667	-3
1,36733	-3
1,36800	-3
1,36867	-3
1,36933	-3
1,37000	-3
1,37067	-3
1,37133	-3
1,37200	-3
1,37267	-3
1,37333	-3
1,37400	-3
1,37467	-3
1,37533	-3
1,37600	-3
1,37667	-3
1,37733	-3
1,37800	-3
1,37867	-3
1,37933	-3
1,38000	-3
1,38067	-3
1,38133	-3
1,38200	-3
1,38267	-3
1,38333	-3
1,38400	-3
1,38467	-3
1,38533	-3
1,38600	-3
1,38667	-3
1,38733	-3
1,38800	-3
1,38867	-3
1,38933	-3
1,39000	-3
1,39067	-3
1,39133	-3
1,39200	-3
1,39267	-3
1,39333	-3
1,39400	-3
1,39467	-3
1,39533	-3
1,39600	-3
1,39667	-3
1,39733	-3
1,39800	-3
1,39867	-3
1,39933	-3
1,40000	-3
1,40067	-3
1,40133	-3
1,40200	-3
1,40267	-3
1,40333	-3
1,40400	-3
1,40467	-3
1,40533	-3
1,40600	-3
1,40667	-3
1,40733	-3
1,40800	-3
1,40867	-3
1,40933	-3
1,41000	-3
1,41067	-3
1,41133	-3
1,41200	-3
1,41267	-3
1,41333	-3
1,41400	-3
1,41467	-3
1,41533	-3
1,41600	-3
1,41667	-3
1,41733	-3
1,41800	-3
1,41867	-3
1,41933	-3
1,42000	-3
1,42067	-3
1,42133	-3
1,42200	-3
1,42267	-3
1,42333	-3
1,42400	-3
1,42467	-3
1,42533	-3
1,42600	-3
1,42667	-3
1,42733	-3
1,42800	-3
1,42867	-3
1,42933	-3
1,43000	-3
1,43067	-3
1,43133	-3
1,43200	-3
1,43267	-3
1,43333	-3
1,43400	-3
1,43467	-3
1,43533	-3
1,43600	-3
1,43667	-3
1,43733	-3
1,43800	-3
1,43867	-3
1,43933	-3
1,44000	-3
1,44067	-3
1,44133	-3
1,44200	-3
1,44267	-3
1,44333	-3
1,44400	-3
1,44467	-3
1,44533	-3
1,44600	-3
1,44667	-3
1,44733	-3
1,44800	-3
1,44867	-3
1,44933	-3
1,45000	-3
1,45067	-3
1,45133	-3
1,45200	-3
1,45267	-3
1,45333	-3
1,45400	-3
1,45467	-3
1,45533	-3
1,45600	-3
1,45667	-3
1,45733	-3
1,45800	-3
1,45867	-3
1,45933	-3
1,46000	-3
1,46067	-3
1,46133	-3
1,46200	-3
1,46267	-3
1,46333	-3
1,46400	-3
1,46467	-3
1,46533	-3
1,46600	-3
1,46667	-3
1,46733	-3
1,46800	-3
1,46867	-3
1,46933	-3
1,47000	-3
1,47067	-3
1,47133	-3
1,47200	-3
1,47267	-3
1,47333	-3
1,47400	-3
1,47467	-3
1,47533	-3
1,47600	-3
1,47667	-3
1,47733	-3
1,47800	-3
1,47867	-3
1,47933	-3
1,48000	-3
1,48067	-3
1,48133	-3
1,48200	-3
1,48267	-3
1,48333	-3
1,48400	-3
1,48467	-3
1,48533	-3
1,48600	-3
1,48667	-3
1,48733	-3
1,48800	-3
1,48867	-3
1,48933	-3
1,49000	-3
1,49067	-3
1,49133	-3
1,49200	-3
1,49267	-3
1,49333	-3
1,49400	-3
1,49467	-3
1,49533	-3
1,49600	-3
1,49667	-3
1,49733	-3
1,49800	-3
1,49867	-3
1,49933	-3
1,50000	-3
1,50067	-3
1,50133	-3
1,50200	-3
1,50267	-3
1,50333	-3
1,50400	-3
1,50467	-3
1,50533	-3
1,50600	-3
1,50667	-3
1,50733	-3
1,50800	-3
1,50867	-3
1,50933	-3
1,51000	-3
1,51067	-3
1,51133	-3
1,51200	-3
1,51267	-3
1,51333	-3
1,51400	-3
1,51467	-3
1,51533	-3
1,51600	-3
1,51667	-3
1,51733	-3
1,51800	-3
1,51867	-3
1,51933	-3
1,52000	-3
1,52067	-3
1,52133	-3
1,52200	-3
1,52267	-3
1,52333	-3
1,52400	-3
1,52467	-3
1,52533	-3
1,52600	-3
1,52667	-3
1,52733	-3
1,52800	-3
1,52867	-3
1,52933	-3
1,53000	-3
1,53067	-3
1,53133	-3
1,53200	-3
1,53267	-3
1,53333	-3
1,53400	-3
1,53467	-3
1,53533	-3
1,53600	-3
1,53667	-3
1,53733	-3
1,53800	-3
1,53867	-3
1,53933	-3
1,54000	-3
1,54067	-3
1,54133	-3
1,54200	-3
1,54267	-3
1,54333	-3
1,54400	-3
1,54467	-3
1,54533	-3
1,54600	-3
1,54667	-3
1,54733	-3
1,54800	-3
1,54867	-3
1,54933	-3
1,55000	-3
1,55067	-3
1,55133	-3
1,55200	-3
1,55267	-3
1,55333	-3
1,55400	-3
1,55467	-3
1,55533	-3
1,55600	-3
1,55667	-3
1,55733	-3
1,55800	-3
1,55867	-3
1,55933	-3
1,56000	-3
1,56067	-3
1,56133	-3
1,56200	-3
1,56267	-3
1,56333	-3
1,56400	-3
1,56467	-3
1,56533	-3
1,56600	-3
1,56667	-3
1,56733	-3
1,56800	-3
1,56867	-3
1,56933	-3
1,57000	-3
1,57067	-3
1,57133	-3
1,57200	-3
1,57267	-3
1,57333	-3
1,57400	-3
1,57467	-3
1,57533	-3
1,57600	-3
1,57667	-3
1,57733	-3
1,57800	-3
1,57867	-3
1,57933	-3
1,58000	-3
1,58067	-3
1,58133	-3
1,58200	-3
1,58267	-3
1,58333	-3
1,58400	-3
1,58467	-3
1,58533	-3
1,58600	-3
1,58667	-3
1,58733	-3
1,58800	-3
1,58867	-3
1,58933	-3
1,59000	-3
1,59067	-3
1,59133	-3
1,59200	-3
1,59267	-3
1,59333	-3
1,59400	-3
1,59467	-3
1,59533	-3
1,59600	-3
1,59667	-3
1,59733	-3
1,59800	-3
1,59867	-3
1,59933	-3
1,60000	-3
1,60067	-3
1,60133	-3
1,60200	-3
1,60267	-3
1,60333	-3
1,60400	-3
1,60467	-3
1,60533	-3
1,60600	-3
1,60667	-3
1,60733	-3
1,60800	-3
1,60867	-3
1,60933	-3
1,61000	-3
1,61067	-3
1,61133	-3
1,61200	-3
1,61267	-3
1,61333	-3
1,61400	-3
1,61467	-3
1,61533	-3
1,61600	-3
1,61667	-3
1,61733	-3
1,61800	-3
1,61867	-3
1,61933	-3
1,62000	-3
1,62067	-3
1,62133	-3
1,62200	-3
1,62267	-3
1,62333	-3
1,62400	-3
1,62467	-3
1,62533	-3
1,62600	-3
1,62667	-3
1,62733	-3
1,62800	-3
1,62867	-3
1,62933	-3
1,63000	-3
1,63067	-3
1,63133	-3
1,63200	-3
1,63267	-3
1,63333	-3
1,63400	-3
1,63467	-3
1,63533	-3
1,63600	-3
1,63667	-3
1,63733	-3
1,63800	-3
1,63867	-3
1,63933	-3
1,64000	-3
1,64067	-3
1,64133	-3
1,64200	-3
1,64267	-3
1,64333	-3
1,64400	-3
1,64467	-3
1,64533	-3
1,64600	-3
1,64667	-3
1,64733	-3
1,64800	-3
1,64867	-3
1,64933	-3
1,65000	-3
1,65067	-3
1,65133	-3
1,65200	-3
1,65267	-3
1,65333	-3
1,65400	-3
1,65467	-3
1,65533	-3
1,65600	-3
1,65667	-3
1,65733	-3
1,65800	-3
1,65867	-3
1,65933	-3
1,66000	-3
1,66067	-3
1,66133	-3
1,66200	-3
1,66267	-3
1,66333	-3
1,66400	-3
1,66467	-3
1,66533	-3
1,66600	-3
1,66667	-3
1,66733	-3
1,66800	-3
1,66867	-3
1,66933	-3
1,67000	-3
1,67067	-3
1,67133	-3
1,67200	-3
1,67267	-3
1,67333	-3
1,67400	-3
1,67467	-3
1,67533	-3
1,67600	-3
1,67667	-3
1,67733	-3
1,67800	-3
1,67867	-3
1,67933	-3
1,68000	-3
1,68067	-3
1,68133	-3
1,68200	-3
1,68267	-3
1,68333	-3
1,68400	-3
1,68467	-3
1,68533	-3
1,68600	-3
1,68667	-3
1,68733	-3
1,68800	-3
1,68867	-3
1,68933	-3
1,69000	-3
1,69067	-3
1,69133	-3
1,69200	-3
1,69267	-3
1,69333	-3
1,69400	-3
1,69467	-3
1,69533	-3
1,69600	-3
1,69667	-3
1,69733	-3
1,69800	-3
1,69867	-3
1,69933	-3
1,70000	-3
1,70067	-3
1,70133	-3
1,70200	-3
1,70267	-3
1,70333	-3
1,70400	-3
1,70467	-3
1,70533	-3
1,70600	-3
1,70667	-3
1,70733	-3
1,70800	-3
1,70867	-3
1,70933	-3
1,71000	-3
1,71067	-3
1,71133	-3
1,71200	-3
1,71267	-3
1,71333	-3
1,71400	-3
1,71467	-3
1,71533	-3
1,71600	-3
1,71667	-3
1,71733	-3
1,71800	-3
1,71867	-3
1,71933	-3
1,72000	-3
1,72067	-3
1,72133	-3
1,72200	-3
1,72267	-3
1,72333	-3
1,72400	-3
1,72467	-3
1,72533	-3
1,72600	-3
1,72667	-3
1,72733	-3
1,72800	-3
1,72867	-3
1,72933	-3
1,73000	-3
1,73067	-3
1,73133	-3
1,73200	-3
1,73267	-3
1,73333	-3
1,73400	-3
1,73467	-3
1,73533	-3
1,73600	-3
1,73667	-3
1,73733	-3
1,73800	-3
1,73867	-3
1,73933	-3
1,74000	-3
1,74067	-3
1,74133	-3
1,74200	-3
1,74267	-3
1,74333	-3
1,74400	-3
1,74467	-3
1,74533	-3
1,74600	-3
1,74667	-3
1,74733	-3
1,74800	-3
1,74867	-3
1,74933	-3
1,75000	-3
1,75067	-3
1,75133	-3
1,75200	-3
1,75267	-3
1,75333	-3
1,75400	-3
1,75467	-3
1,75533	-3
1,75600	-3
1,75667	-3
1,75733	-3
1,75800	-3
1,75867	-3
1,75933	-3
1,76000	-3
1,76067	-3
1,76133	-3
1,76200	-3
1,76267	-3
1,76333	-3
1,76400	-3
1,76467	-3
1,76533	-3
1,76600	-3
1,76667	-3
1,76733	-3
1,76800	-3
1,76867	-3
1,76933	-3
1,77000	-3
1,77067	-3
1,77133	-3
1,77200	-3
1,77267	-3
1,77333	-3
1,77400	-3
1,77467	-3
1,77533	-3
1,77600	-3
1,77667	-3
1,77733	-3
1,77800	-3
1,77867	-3
1,77933	-3
1,78000	-3
1,78067	-3
1,78133	-3
1,78200	-3
1,78267	-3
1,78333	-3
1,78400	-3
1,78467	-3
1,78533	-3
1,78600	-3
1,78667	-3
1,78733	-3
1,78800	-3
1,78867	-3
1,78933	-3
1,79000	-3
1,79067	-3
1,79133	-3
1,79200	-3
1,79267	-3
1,79333	-3
1,79400	-3
1,79467	-3
1,79533	-3
1,79600	-3
1,79667	-3
1,79733	-3
1,79800	-3
1,79867	-3
1,79933	-3
1,80000	-3
1,80067	-3
1,80133	-3
1,80200	-3
1,80267	-3
1,80333	-3
1,80400	-3
1,80467	-3
1,80533	-3
1,80600	-3
1,80667	-3
1,80733	-3
1,80800	-3
1,80867	-3
1,80933	-3
1,81000	-3
1,81067	-3
1,81133	-3
1,81200	-4
1,81267	-4
1,81333	-4
1,81400	-4
1,81467	-4
1,81533	-4
1,81600	-4
1,81667	-4
1,81733	-4
1,81800	-4
1,81867	-4
1,81933	-4
1,82000	-4
1,82067	-4
1,82133	-4
1,82200	-4
1,82267	-4
1,82333	-4
1,82400	-4
1,82467	-4
1,82533	-4
1,82600	-4
1,82667	-4
1,82733	-4
1,82800	-4
1,82867	-4
1,82933	-4
1,83000	-4
1,83067	-4
1,83133	-4
1,83200	-4
1,83267	-4
1,83333	-4
1,83400	-4
1,83467	-4
1,83533	-4
1,83600	-4
1,83667	-4
1,83733	-4
1,83800	-4
1,83867	-4
1,83933	-4
1,84000	-4
1,84067	-4
1,84133	-4
1,84200	-4
1,84267	-4
1,84333	-4
1,84400	-4
1,84467	-4
1,84533	-4
1,84600	-4
1,84667	-4
1,84733	-4
1,84800	-4
1,84867	-4
1,84933	-4
1,85000	-4
1,85067	-4
1,85133	-4
1,85200	-4
1,85267	-4
1,85333	-4
1,85400	-4
1,85467	-4
1,85533	-4
1,85600	-4
1,85667	-4
1,85733	-4
1,85800	-4
1,85867	-4
1,85933	-4
1,86000	-4
1,86067	-4
1,86133	-4
1,86200	-4
1,86267	-4
1,86333	-4
1,86400	-4
1,86467	-4
1,86533	-4
1,86600	-4
1,86667	-4
1,86733	-4
1,86800	-4
1,86867	-4
1,86933	-4
1,87000	-4
1,87067	-4
1,87133	-4
1,87200	-4
1,87267	-4
1,87333	-4
1,87400	-4
1,87467	-4
1,87533	-4
1,87600	-4
1,87667	-4
1,87733	-4
1,87800	-4
1,87867	-4
1,87933	-4
1,88000	-4
1,88067	-4
1,88133	-4
1,88200	-4
1,88267	-4
1,88333	-4
1,88400	-4
1,88467	-4
1,88533	-4
1,88600	-4
1,88667	-4
1,88733	-4
1,88800	-4
1,88867	-4
1,88933	-4
1,89000	-4
1,89067	-4
1,89133	-4
1,89200	-4
1,89267	-4
1,89333	-4
1,89400	-4
1,89467	-4
1,89533	-4
1,89600	-4
1,89667	-4
1,89733	-4
1,89800	-4
1,89867	-4
1,89933	-4
1,90000	-4
1,90067	-4
1,90133	-4
1,90200	-4
1,90267	-4
1,90333	-4
1,90400	-4
1,90467	-4
1,90533	-4
1,90600	-4
1,90667	-4
1,90733	-4
1,90800	-4
1,90867	-4
1,90933	-4
1,91000	-4
1,91067	-4
1,91133	-4
1,91200	-4
1,91267	-4
1,91333	-4
1,91400	-4
1,91467	-4
1,91533	-4
1,91600	-4
1,91667	-4
1,91733	-4
1,91800	-4
1,91867	-4
1,91933	-4
1,92000	-4
1,92067	-4
1,92133	-4
1,92200	-4
1,92267	-4
1,92333	-4
1,92400	-4
1,92467	-4
1,92533	-4
1,92600	-4
1,92667	-4
1,92733	-4
1,92800	-4
1,92867	-4
1,92933	-4
1,93000	-4
1,93067	-4
1,93133	-4
1,93200	-4
1,93267	-4
1,93333	-4
1,93400	-4
1,93467	-4
1,93533	-4
1,93600	-4
1,93667	-4
1,93733	-4
1,93800	-4
1,93867	-4
1,93933	-4
1,94000	-4
1,94067	-4
1,94133	-4
1,94200	-4
1,94267	-4
1,94333	-4
1,94400	-4
1,94467	-4
1,94533	-4
1,94600	-4
1,94667	-4
1,94733	-4
1,94800	-4
1,94867	-4
1,94933	-4
1,95000	-4
1,95067	-4
1,95133	-4
1,95200	-4
1,95267	-4
1,95333	-4
1,95400	-4
1,95467	-4
1,95533	-4
1,95600	-4
1,95667	-4
1,95733	-4
1,95800	-4
1,95867	-4
1,95933	-4
1,96000	-4
1,96067	-4
1,96133	-4
1,96200	-4
1,96267	-4
1,96333	-4
1,96400	-4
1,96467	-4
1,96533	-4
1,96600	-4
1,96667	-4
1,96733	-4
1,96800	-4
1,96867	-4
1,96933	-4
1,97000	-4
1,97067	-4
1,97133	-4
1,97200	-4
1,97267	-4
1,97333	-4
1,97400	-4
1,97467	-4
1,97533	-4
1,97600	-4
1,97667	-4
1,97733	-4
1,97800	-4
1,97867	-4
1,97933	-4
1,98000	-4
1,98067	-4
1,98133	-4
1,98200	-4
1,98267	-4
1,98333	-4
1,98400	-4
1,98467	-4
1,98533	-4
1,98600	-4
1,98667	-4
1,98733	-4
1,98800	-4
1,98867	-4
1,98933	-4
1,99000	-4
1,99067	-4
1,99133	-4
1,99200	-4
1,99267	-4
1,99333	-4
1,99400	-4
1,99467	-4
1,99533	-4
1,99600	-4
1,99667	-4
1,99733	-4
1,99800	-4
1,99867	-4
1,99933	-4
2,00000	-4
2,00067	-4
2,00133	-4
2,00200	-4
2,00267	-4
2,00333	-4
2,00400	-4
2,00467	-4
2,00533	-4
2,00600	-4
2,00667	-4
2,00733	-4
2,00800	-4
2,00867	-4
2,00933	-4
2,01000	-4
2,01067	-4
2,01133	-4
2,01200	-4
2,01267	-4
2,01333	-4
2,01400	-4
2,01467	-4
2,01533	-4
2,01600	-4
2,01667	-4
2,01733	-4
2,01800	-4
2,01867	-4
2,01933	-4
2,02000	-4
2,02067	-4
2,02133	-4
2,02200	-4
2,02267	-4
2,02333	-4
2,02400	-4
2,02467	-4
2,02533	-4
2,02600	-4
2,02667	-4
2,02733	-4
2,02800	-4
2,02867	-4
2,02933	-4
2,03000	-4
2,03067	-4
2,03133	-4
2,03200	-4
2,03267	-4
2,03333	-4
2,03400	-4
2,03467	-4
2,03533	-4
2,03600	-4
2,03667	-4
2,03733	-4
2,03800	-4
2,03867	-4
2,03933	-4
2,04000	-4
2,04067	-4
2,04133	-4
2,04200	-4
2,04267	-4
2,04333	-4
2,04400	-4
2,04467	-4
2,04533	-4
2,04600	-4
2,04667	-4
2,04733	-4
2,04800	-4
2,04867	-4
2,04933	-4
2,05000	-4
2,05067	-4
2,05133	-4
2,05200	-4
2,05267	-4
2,05333	-4
2,05400	-4
2,05467	-4
2,05533	-4
2,05600	-4
2,05667	-4
2,05733	-4
2,05800	-4
2,05867	-4
2,05933	-4
2,06000	-4
2,06067	-4
2,06133	-4
2,06200	-4
2,06267	-4
2,06333	-4
2,06400	-4
2,06467	-4
2,06533	-4
2,06600	-4
2,06667	-4
2,06733	-4
2,06800	-4
2,06867	-4
2,06933	-4
2,07000	-4
2,07067	-4
2,07133	-4
2,07200	-4
2,07267	-4
2,07333	-4
2,07400	-4
2,07467	-4
2,07533	-4
2,07600	-4
2,07667	-4
2,07733	-4
2,07800	-4
2,07867	-4
2,07933	-4
2,08000	-4
2,08067	-4
2,08133	-4
2,08200	-4
2,08267	-4
2,08333	-4
2,08400	-4
2,08467	-4
2,08533	-4
2,08600	-3
2,08667	-3
2,08733	-3
2,08800	-3
2,08867	-3
2,08933	-3
2,09000	-3
2,09067	-3
2,09133	-3
2,09200	-3
2,09267	-3
2,09333	-3
2,09400	-3
2,09467	-3
2,09533	-3
2,09600	-3
2,09667	-3
2,09733	-3
2,09800	-3
2,09867	-3
2,09933	-3
2,10000	-3
2,10067	-3
2,10133	-3
2,10200	-3
2,10267	-3
2,10333	-3
2,10400	-3
2,10467	-3
2,10533	-3
2,10600	-3
2,10667	-3
2,10733	-3
2,10800	-3
2,10867	-3
2,10933	-3
2,11000	-3
2,11067	-3
2,11133	-3
2,11200	-3
2,11267	-3
2,11333	-3
2,11400	-3
2,11467	-3
2,11533	-3
2,11600	-3
2,11667	-3
2,11733	-3
2,11800	-3
2,11867	-3
2,11933	-3
2,12000	-2
2,12067	-2
2,12133	-2
2,12200	-2
2,12267	-2
2,12333	-2
2,12400	-2
2,12467	-2
2,12533	-2
2,12600	-2
2,12667	-2
2,12733	-2
2,12800	-2
2,12867	-2
2,12933	-2
2,13000	-2
2,13067	-2
2,13133	-2
2,13200	-2
2,13267	-2
2,13333	-2
2,13400	-2
2,13467	-2
2,13533	-2
2,13600	-2
2,13667	-2
2,13733	-2
2,13800	-2
2,13867	-2
2,13933	-2
2,14000	-2
2,14067	-2
2,14133	-2
2,14200	-2
2,14267	-2
2,14333	-2
2,14400	-2
2,14467	-2
2,14533	-2
2,14600	-2
2,14667	-2
2,14733	-2
2,14800	-2
2,14867	-1
2,14933	-1
2,15000	-1
2,15067	-1
2,15133	-1
2,15200	-1
2,15267	-1
2,15333	-1
2,15400	-1
2,15467	-1
2,15533	-1
2,15600	-1
2,15667	-1
2,15733	-1
2,15800	-1
2,15867	-1
2,15933	-1
2,16000	-1
2,16067	-1
2,16133	-1
2,16200	-1
2,16267	-1
2,16333	-1
2,16400	-1
2,16467	-1
2,16533	-1
2,16600	-1
2,16667	-1
2,16733	-0
2,16800	-0
2,16867	-0
2,16933	-0
2,17000	-0
2,17067	-0
2,17133	-0
2,17200	-0
2,17267	-0
2,17333	0
2,17400	0
2,17467	0
2,17533	0
2,17600	0
2,17667	0
2,17733	0
2,17800	0
2,17867	0
2,17933	0
2,18000	0
2,18067	0
2,18133	0
2,18200	0
2,18267	0
2,18333	1
2,18400	1
2,18467	1
2,18533	1
2,18600	1
2,18667	1
2,18733	1
2,18800	1
2,18867	1
2,18933	1
2,19000	1
2,19067	1
2,19133	1
2,19200	1
2,19267	1
2,19333	1
2,19400	1
2,19467	1
2,19533	1
2,19600	1
2,19667	1
2,19733	2
2,19800	2
2,19867	2
2,19933	2
2,20000	2
2,20067	2
2,20133	2
2,20200	2
2,20267	2
2,20333	2
2,20400	2
2,20467	2
2,20533	2
2,20600	2
2,20667	2
2,20733	2
2,20800	2
2,20867	2
2,20933	2
2,21000	2
2,21067	2
2,21133	2
2,21200	2
2,21267	2
2,21333	2
2,21400	2
2,21467	2
2,21533	2
2,21600	3
2,21667	3
2,21733	3
2,21800	3
2,21867	3
2,21933	3
2,22000	3
2,22067	3
2,22133	3
2,22200	3
2,22267	3
2,22333	3
2,22400	3
2,22467	3
2,22533	3
2,22600	3
2,22667	3
2,22733	3
2,22800	3
2,22867	3
2,22933	3
2,23000	3
2,23067	3
2,23133	3
2,23200	3
2,23267	3
2,23333	3
2,23400	3
2,23467	3
2,23533	3
2,23600	3
2,23667	3
2,23733	3
2,23800	3
2,23867	3
2,23933	3
2,24000	4
2,24067	4
2,24133	4
2,24200	4
2,24267	4
2,24333	4
2,24400	4
2,24467	4
2,24533	4
2,24600	4
2,24667	4
2,24733	4
2,24800	4
2,24867	4
2,24933	4
2,25000	4
2,25067	4
2,25133	4
2,25200	4
2,25267	4
2,25333	4
2,25400	4
2,25467	4
2,25533	4
2,25600	4
2,25667	4
2,25733	4
2,25800	4
2,25867	4
2,25933	4
2,26000	4
2,26067	4
2,26133	4
2,26200	4
2,26267	4
2,26333	4
2,26400	4
2,26467	4
2,26533	4
2,26600	4
2,26667	4
2,26733	4
2,26800	4
2,26867	4
2,26933	4
2,27000	4
2,27067	4
2,27133	4
2,27200	4
2,27267	4
2,27333	4
2,27400	4
2,27467	4
2,27533	4
2,27600	4
2,27667	4
2,27733	4
2,27800	4
2,27867	4
2,27933	4
2,28000	4
2,28067	4
2,28133	4
2,28200	4
2,28267	4
2,28333	4
2,28400	4
2,28467	4
2,28533	4
2,28600	4
2,28667	4
2,28733	4
2,28800	4
2,28867	4
2,28933	4
2,29000	4
2,29067	4
2,29133	4
2,29200	4
2,29267	4
2,29333	4
2,29400	4
2,29467	4
2,29533	4
2,29600	4
2,29667	4
2,29733	4
2,29800	4
2,29867	4
2,29933	4
2,30000	4
2,30067	4
2,30133	4
2,30200	4
2,30267	4
2,30333	4
2,30400	4
2,30467	4
2,30533	4
2,30600	4
2,30667	4
2,30733	4
2,30800	4
2,30867	4
2,30933	4
2,31000	4
2,31067	4
2,31133	4
2,31200	4
2,31267	4
2,31333	4
2,31400	4
2,31467	4
2,31533	4
2,31600	4
2,31667	4
2,31733	4
2,31800	3
2,31867	3
2,31933	3
2,32000	3
2,32067	3
2,32133	3
2,32200	3
2,32267	3
2,32333	3
2,32400	3
2,32467	3
2,32533	3
2,32600	3
2,32667	3
2,32733	3
2,32800	3
2,32867	3
2,32933	3
2,33000	3
2,33067	3
2,33133	3
2,33200	3
2,33267	3
2,33333	3
2,33400	3
2,33467	3
2,33533	3
2,33600	3
2,33667	3
2,33733	3
2,33800	3
2,33867	3
2,33933	3
2,34000	3
2,34067	3
2,34133	3
2,34200	3
2,34267	3
2,34333	3
2,34400	3
2,34467	3
2,34533	3
2,34600	3
2,34667	3
2,34733	3
2,34800	3
2,34867	3
2,34933	3
2,35000	3
2,35067	3
2,35133	3
2,35200	3
2,35267	3
2,35333	3
2,35400	3
2,35467	3
2,35533	2
2,35600	2
2,35667	2
2,35733	2
2,35800	2
2,35867	2
2,35933	2
2,36000	2
2,36067	2
2,36133	2
2,36200	2
2,36267	2
2,36333	2
2,36400	2
2,36467	2
2,36533	2
2,36600	2
2,36667	2
2,36733	2
2,36800	2
2,36867	2
2,36933	2
2,37000	2
2,37067	2
2,37133	2
2,37200	2
2,37267	2
2,37333	2
2,37400	2
2,37467	2
2,37533	2
2,37600	2
2,37667	2
2,37733	2
2,37800	2
2,37867	2
2,37933	2
2,38000	2
2,38067	2
2,38133	2
2,38200	2
2,38267	2
2,38333	2
2,38400	2
2,38467	2
2,38533	2
2,38600	2
2,38667	2
2,38733	2
2,38800	2
2,38867	2
2,38933	2
2,39000	2
2,39067	2
2,39133	2
2,39200	2
2,39267	2
2,39333	2
2,39400	2
2,39467	2
2,39533	1
2,39600	1
2,39667	1
2,39733	1
2,39800	1
2,39867	1
2,39933	1
2,40000	1
2,40067	1
2,40133	1
2,40200	1
2,40267	1
2,40333	1
2,40400	1
2,40467	1
2,40533	1
2,40600	1
2,40667	1
2,40733	1
2,40800	1
2,40867	1
2,40933	1
2,41000	1
2,41067	1
2,41133	1
2,41200	1
2,41267	1
2,41333	1
2,41400	1
2,41467	1
2,41533	1
2,41600	1
2,41667	1
2,41733	1
2,41800	1
2,41867	1
2,41933	1
2,42000	1
2,42067	1
2,42133	1
2,42200	1
2,42267	1
2,42333	1
2,42400	1
2,42467	1
2,42533	1
2,42600	1
2,42667	1
2,42733	1
2,42800	1
2,42867	1
2,42933	1
2,43000	1
2,43067	1
2,43133	1
2,43200	1
2,43267	1
2,43333	0
2,43400	0
2,43467	0
2,43533	0
2,43600	0
2,43667	0
2,43733	0
2,43800	0
2,43867	0
2,43933	0
2,44000	0
2,44067	0
2,44133	0
2,44200	0
2,44267	0
2,44333	0
2,44400	0
2,44467	0
2,44533	0
2,44600	0
2,44667	0
2,44733	0
2,44800	0
2,44867	0
2,44933	0
2,45000	0
2,45067	-0
2,45133	-0
2,45200	-0
2,45267	-0
2,45333	-0
2,45400	-0
2,45467	-0
2,45533	-0
2,45600	-0
2,45667	-0
2,45733	-0
2,45800	-0
2,45867	-0
2,45933	-0
2,46000	-0
2,46067	-0
2,46133	-0
2,46200	-0
2,46267	-0
2,46333	-0
2,46400	-0
2,46467	-0
2,46533	-0
2,46600	-0
2,46667	-0
2,46733	-0
2,46800	-1
2,46867	-1
2,46933	-1
2,47000	-1
2,47067	-1
2,47133	-1
2,47200	-1
2,47267	-1
2,47333	-1
2,47400	-1
2,47467	-1
2,47533	-1
2,47600	-1
2,47667	-1
2,47733	-1
2,47800	-1
2,47867	-1
2,47933	-1
2,48000	-1
2,48067	-1
2,48133	-1
2,48200	-1
2,48267	-1
2,48333	-1
2,48400	-1
2,48467	-1
2,48533	-1
2,48600	-1
2,48667	-1
2,48733	-1
2,48800	-1
2,48867	-1
2,48933	-1
2,49000	-1
2,49067	-1
2,49133	-1
2,49200	-1
2,49267	-1
2,49333	-1
2,49400	-1
2,49467	-1
2,49533	-1
2,49600	-1
2,49667	-1
2,49733	-1
2,49800	-1
2,49867	-1
2,49933	-1
2,50000	-1
2,50067	-1
2,50133	-1
2,50200	-1
2,50267	-1
2,50333	-1
2,50400	-1
2,50467	-1
2,50533	-1
2,50600	-1
2,50667	-1
2,50733	-1
2,50800	-1
2,50867	-1
2,50933	-1
2,51000	-1
2,51067	-1
2,51133	-1
2,51200	-1
2,51267	-1
2,51333	-1
2,51400	-1
2,51467	-1
2,51533	-1
2,51600	-1
2,51667	-1
2,51733	-1
2,51800	-1
2,51867	-1
2,51933	-1
2,52000	-1
2,52067	-1
2,52133	-1
2,52200	-1
2,52267	-1
2,52333	-1
2,52400	-1
2,52467	-1
2,52533	-1
2,52600	-1
2,52667	-1
2,52733	-1
2,52800	-1
2,52867	-1
2,52933	-1
2,53000	-1
2,53067	-1
2,53133	-1
2,53200	-1
2,53267	-1
2,53333	-1
2,53400	-1
2,53467	-1
2,53533	-1
2,53600	-1
2,53667	-1
2,53733	-1
2,53800	-2
2,53867	-2
2,53933	-2
2,54000	-2
2,54067	-2
2,54133	-2
2,54200	-2
2,54267	-2
2,54333	-2
2,54400	-2
2,54467	-2
2,54533	-2
2,54600	-2
2,54667	-2
2,54733	-2
2,54800	-2
2,54867	-2
2,54933	-2
2,55000	-2
2,55067	-2
2,55133	-2
2,55200	-2
2,55267	-2
2,55333	-2
2,55400	-2
2,55467	-2
2,55533	-2
2,55600	-2
2,55667	-2
2,55733	-2
2,55800	-2
2,55867	-2
2,55933	-2
2,56000	-2
2,56067	-2
2,56133	-2
2,56200	-2
2,56267	-2
2,56333	-2
2,56400	-2
2,56467	-2
2,56533	-2
2,56600	-2
2,56667	-2
2,56733	-2
2,56800	-2
2,56867	-2
2,56933	-2
2,57000	-2
2,57067	-2
2,57133	-2
2,57200	-2
2,57267	-2
2,57333	-2
2,57400	-2
2,57467	-2
2,57533	-2
2,57600	-2
2,57667	-2
2,57733	-2
2,57800	-2
2,57867	-2
2,57933	-2
2,58000	-2
2,58067	-2
2,58133	-2
2,58200	-2
2,58267	-2
2,58333	-2
2,58400	-2
2,58467	-2
2,58533	-2
2,58600	-2
2,58667	-2
2,58733	-2
2,58800	-2
2,58867	-2
2,58933	-2
2,59000	-2
2,59067	-2
2,59133	-2
2,59200	-2
2,59267	-2
2,59333	-2
2,59400	-2
2,59467	-2
2,59533	-2
2,59600	-2
2,59667	-2
2,59733	-2
2,59800	-2
2,59867	-2
2,59933	-2
2,60000	-2
2,60067	-2
2,60133	-2
2,60200	-2
2,60267	-2
2,60333	-2
2,60400	-2
2,60467	-2
2,60533	-2
2,60600	-2
2,60667	-2
2,60733	-2
2,60800	-2
2,60867	-2
2,60933	-2
2,61000	-2
2,61067	-2
2,61133	-2
2,61200	-2
2,61267	-2
2,61333	-2
2,61400	-2
2,61467	-2
2,61533	-2
2,61600	-2
2,61667	-2
2,61733	-2
2,61800	-2
2,61867	-2
2,61933	-2
2,62000	-2
2,62067	-2
2,62133	-2
2,62200	-2
2,62267	-2
2,62333	-2
2,62400	-2
2,62467	-2
2,62533	-2
2,62600	-2
2,62667	-2
2,62733	-2
2,62800	-2
2,62867	-2
2,62933	-2
2,63000	-3
2,63067	-3
2,63133	-3
2,63200	-3
2,63267	-3
2,63333	-3
2,63400	-3
2,63467	-3
2,63533	-3
2,63600	-3
2,63667	-3
2,63733	-3
2,63800	-3
2,63867	-3
2,63933	-3
2,64000	-3
2,64067	-3
2,64133	-3
2,64200	-3
2,64267	-3
2,64333	-3
2,64400	-3
2,64467	-3
2,64533	-3
2,64600	-3
2,64667	-3
2,64733	-3
2,64800	-3
2,64867	-3
2,64933	-3
2,65000	-3
2,65067	-3
2,65133	-3
2,65200	-3
2,65267	-3
2,65333	-3
2,65400	-3
2,65467	-3
2,65533	-3
2,65600	-3
2,65667	-3
2,65733	-3
2,65800	-3
2,65867	-3
2,65933	-3
2,66000	-3
2,66067	-3
2,66133	-3
2,66200	-3
2,66267	-3
2,66333	-3
2,66400	-3
2,66467	-3
2,66533	-3
2,66600	-3
2,66667	-3
2,66733	-3
2,66800	-3
2,66867	-3
2,66933	-3
2,67000	-3
2,67067	-3
2,67133	-3
2,67200	-3
2,67267	-3
2,67333	-3
2,67400	-3
2,67467	-3
2,67533	-3
2,67600	-3
2,67667	-3
2,67733	-3
2,67800	-3
2,67867	-3
2,67933	-3
2,68000	-3
2,68067	-3
2,68133	-3
2,68200	-3
2,68267	-3
2,68333	-3
2,68400	-3
2,68467	-3
2,68533	-3
2,68600	-3
2,68667	-3
2,68733	-3
2,68800	-3
2,68867	-3
2,68933	-3
2,69000	-3
2,69067	-3
2,69133	-3
2,69200	-3
2,69267	-3
2,69333	-3
2,69400	-3
2,69467	-3
2,69533	-3
2,69600	-3
2,69667	-3
2,69733	-3
2,69800	-3
2,69867	-3
2,69933	-3
2,70000	-3
2,70067	-3
2,70133	-3
2,70200	-3
2,70267	-3
2,70333	-3
2,70400	-3
2,70467	-3
2,70533	-3
2,70600	-3
2,70667	-3
2,70733	-3
2,70800	-3
2,70867	-3
2,70933	-3
2,71000	-3
2,71067	-3
2,71133	-3
2,71200	-3
2,71267	-3
2,71333	-3
2,71400	-3
2,71467	-3
2,71533	-3
2,71600	-3
2,71667	-3
2,71733	-3
2,71800	-3
2,71867	-3
2,71933	-3
2,72000	-3
2,72067	-3
2,72133	-3
2,72200	-3
2,72267	-3
2,72333	-3
2,72400	-3
2,72467	-3
2,72533	-3
2,72600	-3
2,72667	-3
2,72733	-3
2,72800	-3
2,72867	-3
2,72933	-3
2,73000	-3
2,73067	-3
2,73133	-3
2,73200	-3
2,73267	-3
2,73333	-3
2,73400	-3
2,73467	-3
2,73533	-3
2,73600	-3
2,73667	-3
2,73733	-3
2,73800	-3
2,73867	-3
2,73933	-3
2,74000	-3
2,74067	-3
2,74133	-3
2,74200	-3
2,74267	-3
2,74333	-3
2,74400	-3
2,74467	-3
2,74533	-3
2,74600	-3
2,74667	-3
2,74733	-3
2,74800	-3
2,74867	-3
2,74933	-3
2,75000	-3
2,75067	-3
2,75133	-3
2,75200	-3
2,75267	-3
2,75333	-3
2,75400	-3
2,75467	-3
2,75533	-3
2,75600	-3
2,75667	-3
2,75733	-3
2,75800	-3
2,75867	-3
2,75933	-3
2,76000	-3
2,76067	-3
2,76133	-3
2,76200	-3
2,76267	-3
2,76333	-3
2,76400	-3
2,76467	-3
2,76533	-3
2,76600	-3
2,76667	-3
2,76733	-3
2,76800	-3
2,76867	-3
2,76933	-3
2,77000	-3
2,77067	-3
2,77133	-3
2,77200	-3
2,77267	-3
2,77333	-3
2,77400	-3
2,77467	-3
2,77533	-3
2,77600	-3
2,77667	-3
2,77733	-3
2,77800	-3
2,77867	-3
2,77933	-3
2,78000	-3
2,78067	-3
2,78133	-3
2,78200	-3
2,78267	-3
2,78333	-3
2,78400	-3
2,78467	-3
2,78533	-3
2,78600	-3
2,78667	-3
2,78733	-3
2,78800	-3
2,78867	-3
2,78933	-3
2,79000	-3
2,79067	-3
2,79133	-3
2,79200	-3
2,79267	-3
2,79333	-3
2,79400	-3
2,79467	-3
2,79533	-3
2,79600	-3
2,79667	-3
2,79733	-3
2,79800	-3
2,79867	-3
2,79933	-3
2,80000	-3
2,80067	-3
2,80133	-3
2,80200	-3
2,80267	-3
2,80333	-3
2,80400	-3
2,80467	-3
2,80533	-3
2,80600	-3
2,80667	-3
2,80733	-3
2,80800	-3
2,80867	-3
2,80933	-3
2,81000	-3
2,81067	-3
2,81133	-3
2,81200	-3
2,81267	-3
2,81333	-3
2,81400	-3
2,81467	-3
2,81533	-3
2,81600	-2
2,81667	-2
2,81733	-2
2,81800	-2
2,81867	-2
2,81933	-2
2,82000	-2
2,82067	-2
2,82133	-2
2,82200	-2
2,82267	-2
2,82333	-2
2,82400	-2
2,82467	-2
2,82533	-2
2,82600	-2
2,82667	-2
2,82733	-2
2,82800	-2
2,82867	-2
2,82933	-2
2,83000	-2
2,83067	-2
2,83133	-2
2,83200	-2
2,83267	-2
2,83333	-2
2,83400	-2
2,83467	-2
2,83533	-2
2,83600	-2
2,83667	-2
2,83733	-2
2,83800	-2
2,83867	-2
2,83933	-2
2,84000	-2
2,84067	-2
2,84133	-2
2,84200	-2
2,84267	-2
2,84333	-2
2,84400	-2
2,84467	-2
2,84533	-2
2,84600	-2
2,84667	-2
2,84733	-2
2,84800	-2
2,84867	-2
2,84933	-2
2,85000	-2
2,85067	-2
2,85133	-2
2,85200	-2
2,85267	-2
2,85333	-2
2,85400	-2
2,85467	-2
2,85533	-2
2,85600	-2
2,85667	-2
2,85733	-2
2,85800	-2
2,85867	-2
2,85933	-2
2,86000	-2
2,86067	-2
2,86133	-2
2,86200	-2
2,86267	-2
2,86333	-2
2,86400	-2
2,86467	-2
2,86533	-2
2,86600	-2
2,86667	-2
2,86733	-2
2,86800	-2
2,86867	-2
2,86933	-2
2,87000	-2
2,87067	-2
2,87133	-2
2,87200	-2
2,87267	-2
2,87333	-2
2,87400	-2
2,87467	-2
2,87533	-2
2,87600	-2
2,87667	-2
2,87733	-2
2,87800	-2
2,87867	-2
2,87933	-2
2,88000	-2
2,88067	-2
2,88133	-2
2,88200	-2
2,88267	-2
2,88333	-2
2,88400	-2
2,88467	-2
2,88533	-2
2,88600	-2
2,88667	-2
2,88733	-2
2,88800	-2
2,88867	-2
2,88933	-2
2,89000	-2
2,89067	-2
2,89133	-2
2,89200	-2
2,89267	-2
2,89333	-2
2,89400	-2
2,89467	-2
2,89533	-2
2,89600	-2
2,89667	-2
2,89733	-2
2,89800	-2
2,89867	-2
2,89933	-2
2,90000	-2
2,90067	-2
2,90133	-2
2,90200	-2
2,90267	-2
2,90333	-2
2,90400	-2
2,90467	-2
2,90533	-2
2,90600	-2
2,90667	-2
2,90733	-2
2,90800	-2
2,90867	-2
2,90933	-2
2,91000	-2
2,91067	-2
2,91133	-2
2,91200	-2
2,91267	-2
2,91333	-2
2,91400	-2
2,91467	-2
2,91533	-2
2,91600	-2
2,91667	-2
2,91733	-2
2,91800	-2
2,91867	-2
2,91933	-2
2,92000	-2
2,92067	-2
2,92133	-2
2,92200	-2
2,92267	-2
2,92333	-2
2,92400	-2
2,92467	-2
2,92533	-2
2,92600	-2
2,92667	-2
2,92733	-2
2,92800	-2
2,92867	-2
2,92933	-2
2,93000	-2
2,93067	-2
2,93133	-2
2,93200	-2
2,93267	-2
2,93333	-2
2,93400	-2
2,93467	-2
2,93533	-2
2,93600	-2
2,93667	-2
2,93733	-2
2,93800	-2
2,93867	-2
2,93933	-2
2,94000	-2
2,94067	-2
2,94133	-2
2,94200	-2
2,94267	-2
2,94333	-2
2,94400	-2
2,94467	-2
2,94533	-2
2,94600	-2
2,94667	-2
2,94733	-2
2,94800	-2
2,94867	-2
2,94933	-2
2,95000	-2
2,95067	-2
2,95133	-2
2,95200	-2
2,95267	-2
2,95333	-2
2,95400	-2
2,95467	-2
2,95533	-2
2,95600	-2
2,95667	-2
2,95733	-2
2,95800	-2
2,95867	-2
2,95933	-2
2,96000	-2
2,96067	-2
2,96133	-2
2,96200	-2
2,96267	-2
2,96333	-2
2,96400	-2
2,96467	-2
2,96533	-2
2,96600	-2
2,96667	-2
2,96733	-2
2,96800	-2
2,96867	-2
2,96933	-2
2,97000	-2
2,97067	-2
2,97133	-2
2,97200	-2
2,97267	-2
2,97333	-2
2,97400	-2
2,97467	-2
2,97533	-2
2,97600	-2
2,97667	-2
2,97733	-2
2,97800	-2
2,97867	-2
2,97933	-2
2,98000	-2
2,98067	-2
2,98133	-2
2,98200	-2
2,98267	-2
2,98333	-2
2,98400	-2
2,98467	-2
2,98533	-2
2,98600	-2
2,98667	-2
2,98733	-2
2,98800	-2
2,98867	-2
2,98933	-2
2,99000	-2
2,99067	-2
2,99133	-2
2,99200	-2
2,99267	-2
2,99333	-2
2,99400	-2
2,99467	-2
2,99533	-2
2,99600	-2
2,99667	-2
2,99733	-2
2,99800	-2
2,99867	-2
2,99933	-2
3,00000	-2
3,00067	-2
3,00133	-2
3,00200	-2
3,00267	-2
3,00333	-2
3,00400	-2
3,00467	-2
3,00533	-2
3,00600	-2
3,00667	-2
3,00733	-2
3,00800	-2
3,00867	-2
3,00933	-2
3,01000	-2
3,01067	-2
3,01133	-2
3,01200	-2
3,01267	-2
3,01333	-2
3,01400	-2
3,01467	-2
3,01533	-2
3,01600	-2
3,01667	-2
3,01733	-2
3,01800	-2
3,01867	-2
3,01933	-2
3,02000	-2
3,02067	-2
3,02133	-2
3,02200	-2
3,02267	-2
3,02333	-2
3,02400	-2
3,02467	-2
3,02533	-2
3,02600	-2
3,02667	-2
3,02733	-2
3,02800	-2
3,02867	-2
3,02933	-2
3,03000	-2
3,03067	-2
3,03133	-2
3,03200	-2
3,03267	-2
3,03333	-2
3,03400	-2
3,03467	-2
3,03533	-2
3,03600	-2
3,03667	-2
3,03733	-2
3,03800	-2
3,03867	-2
3,03933	-2
3,04000	-2
3,04067	-2
3,04133	-2
3,04200	-2
3,04267	-2
3,04333	-2
3,04400	-2
3,04467	-2
3,04533	-2
3,04600	-2
3,04667	-2
3,04733	-2
3,04800	-2
3,04867	-2
3,04933	-2
3,05000	-2
3,05067	-2
3,05133	-2
3,05200	-2
3,05267	-2
3,05333	-2
3,05400	-2
3,05467	-2
3,05533	-2
3,05600	-2
3,05667	-2
3,05733	-2
3,05800	-2
3,05867	-2
3,05933	-2
3,06000	-2
3,06067	-2
3,06133	-2
3,06200	-2
3,06267	-2
3,06333	-2
3,06400	-2
3,06467	-2
3,06533	-2
3,06600	-2
3,06667	-2
3,06733	-2
3,06800	-2
3,06867	-2
3,06933	-2
3,07000	-2
3,07067	-2
3,07133	-2
3,07200	-2
3,07267	-2
3,07333	-2
3,07400	-2
3,07467	-2
3,07533	-2
3,07600	-2
3,07667	-2
3,07733	-2
3,07800	-2
3,07867	-2
3,07933	-2
3,08000	-2
3,08067	-2
3,08133	-2
3,08200	-2
3,08267	-2
3,08333	-2
3,08400	-2
3,08467	-2
3,08533	-2
3,08600	-2
3,08667	-2
3,08733	-2
3,08800	-2
3,08867	-2
3,08933	-2
3,09000	-2
3,09067	-2
3,09133	-2
3,09200	-2
3,09267	-2
3,09333	-2
3,09400	-2
3,09467	-2
3,09533	-2
3,09600	-2
3,09667	-2
3,09733	-2
3,09800	-2
3,09867	-3
3,09933	-3
3,10000	-3
3,10067	-3
3,10133	-3
3,10200	-3
3,10267	-3
3,10333	-3
3,10400	-3
3,10467	-3
3,10533	-3
3,10600	-3
3,10667	-3
3,10733	-3
3,10800	-3
3,10867	-3
3,10933	-3
3,11000	-3
3,11067	-3
3,11133	-3
3,11200	-3
3,11267	-3
3,11333	-3
3,11400	-3
3,11467	-3
3,11533	-3
3,11600	-3
3,11667	-3
3,11733	-3
3,11800	-3
3,11867	-3
3,11933	-3
3,12000	-3
3,12067	-3
3,12133	-3
3,12200	-3
3,12267	-3
3,12333	-3
3,12400	-3
3,12467	-3
3,12533	-3
3,12600	-3
3,12667	-3
3,12733	-3
3,12800	-3
3,12867	-3
3,12933	-3
3,13000	-3
3,13067	-3
3,13133	-3
3,13200	-3
3,13267	-3
3,13333	-3
3,13400	-3
3,13467	-3
3,13533	-3
3,13600	-3
3,13667	-3
3,13733	-3
3,13800	-3
3,13867	-3
3,13933	-3
3,14000	-3
3,14067	-3
3,14133	-3
3,14200	-3
3,14267	-3
3,14333	-3
3,14400	-3
3,14467	-3
3,14533	-3
3,14600	-3
3,14667	-3
3,14733	-3
3,14800	-3
3,14867	-3
3,14933	-3
3,15000	-3
3,15067	-3
3,15133	-3
3,15200	-3
3,15267	-3
3,15333	-3
3,15400	-3
3,15467	-3
3,15533	-3
3,15600	-3
3,15667	-3
3,15733	-3
3,15800	-3
3,15867	-3
3,15933	-3
3,16000	-3
3,16067	-3
3,16133	-3
3,16200	-3
3,16267	-3
3,16333	-3
3,16400	-3
3,16467	-3
3,16533	-3
3,16600	-3
3,16667	-3
3,16733	-3
3,16800	-3
3,16867	-3
3,16933	-3
3,17000	-3
3,17067	-3
3,17133	-3
3,17200	-3
3,17267	-3
3,17333	-3
3,17400	-3
3,17467	-3
3,17533	-3
3,17600	-3
3,17667	-3
3,17733	-3
3,17800	-3
3,17867	-3
3,17933	-3
3,18000	-3
3,18067	-3
3,18133	-3
3,18200	-3
3,18267	-3
3,18333	-3
3,18400	-3
3,18467	-3
3,18533	-3
3,18600	-3
3,18667	-3
3,18733	-3
3,18800	-3
3,18867	-3
3,18933	-3
3,19000	-3
3,19067	-3
3,19133	-3
3,19200	-3
3,19267	-3
3,19333	-3
3,19400	-3
3,19467	-3
3,19533	-3
3,19600	-3
3,19667	-3
3,19733	-3
3,19800	-3
3,19867	-3
3,19933	-3
3,20000	-3
3,20067	-3
3,20133	-3
3,20200	-3
3,20267	-3
3,20333	-3
3,20400	-3
3,20467	-3
3,20533	-3
3,20600	-3
3,20667	-3
3,20733	-3
3,20800	-3
3,20867	-3
3,20933	-3
3,21000	-3
3,21067	-3
3,21133	-3
3,21200	-3
3,21267	-3
3,21333	-3
3,21400	-3
3,21467	-3
3,21533	-3
3,21600	-3
3,21667	-3
3,21733	-3
3,21800	-3
3,21867	-3
3,21933	-3
3,22000	-3
3,22067	-3
3,22133	-3
3,22200	-3
3,22267	-3
3,22333	-3
3,22400	-3
3,22467	-3
3,22533	-3
3,22600	-3
3,22667	-3
3,22733	-3
3,22800	-3
3,22867	-3
3,22933	-3
3,23000	-3
3,23067	-3
3,23133	-3
3,23200	-4
3,23267	-4
3,23333	-4
3,23400	-4
3,23467	-4
3,23533	-4
3,23600	-4
3,23667	-4
3,23733	-4
3,23800	-4
3,23867	-4
3,23933	-4
3,24000	-4
3,24067	-4
3,24133	-4
3,24200	-4
3,24267	-4
3,24333	-4
3,24400	-4
3,24467	-4
3,24533	-4
3,24600	-4
3,24667	-4
3,24733	-4
3,24800	-4
3,24867	-4
3,24933	-4
3,25000	-4
3,25067	-4
3,25133	-4
3,25200	-4
3,25267	-4
3,25333	-4
3,25400	-4
3,25467	-4
3,25533	-4
3,25600	-4
3,25667	-4
3,25733	-4
3,25800	-4
3,25867	-4
3,25933	-4
3,26000	-4
3,26067	-4
3,26133	-4
3,26200	-4
3,26267	-4
3,26333	-4
3,26400	-4
3,26467	-4
3,26533	-4
3,26600	-4
3,26667	-4
3,26733	-4
3,26800	-4
3,26867	-4
3,26933	-4
3,27000	-4
3,27067	-4
3,27133	-4
3,27200	-4
3,27267	-4
3,27333	-4
3,27400	-4
3,27467	-4
3,27533	-4
3,27600	-4
3,27667	-4
3,27733	-4
3,27800	-4
3,27867	-4
3,27933	-4
3,28000	-4
3,28067	-4
3,28133	-4
3,28200	-4
3,28267	-4
3,28333	-4
3,28400	-4
3,28467	-4
3,28533	-4
3,28600	-4
3,28667	-4
3,28733	-4
3,28800	-4
3,28867	-4
3,28933	-4
3,29000	-4
3,29067	-4
3,29133	-4
3,29200	-4
3,29267	-4
3,29333	-4
3,29400	-4
3,29467	-4
3,29533	-4
3,29600	-4
3,29667	-4
3,29733	-4
3,29800	-4
3,29867	-4
3,29933	-4
3,30000	-4
3,30067	-4
3,30133	-4
3,30200	-4
3,30267	-4
3,30333	-4
3,30400	-4
3,30467	-4
3,30533	-4
3,30600	-4
3,30667	-4
3,30733	-4
3,30800	-4
3,30867	-4
3,30933	-4
3,31000	-4
3,31067	-4
3,31133	-4
3,31200	-4
3,31267	-4
3,31333	-4
3,31400	-4
3,31467	-4
3,31533	-4
3,31600	-4
3,31667	-4
3,31733	-4
3,31800	-4
3,31867	-4
3,31933	-4
3,32000	-4
3,32067	-4
3,32133	-4
3,32200	-4
3,32267	-4
3,32333	-4
3,32400	-4
3,32467	-4
3,32533	-4
3,32600	-4
3,32667	-4
3,32733	-4
3,32800	-4
3,32867	-4
3,32933	-4
3,33000	-4
3,33067	-4
3,33133	-4
3,33200	-4
3,33267	-4
3,33333	-4
3,33400	-4
3,33467	-4
3,33533	-4
3,33600	-4
3,33667	-4
3,33733	-4
3,33800	-4
3,33867	-4
3,33933	-4
3,34000	-4
3,34067	-4
3,34133	-4
3,34200	-4
3,34267	-4
3,34333	-4
3,34400	-4
3,34467	-4
3,34533	-4
3,34600	-4
3,34667	-4
3,34733	-4
3,34800	-4
3,34867	-4
3,34933	-4
3,35000	-4
3,35067	-4
3,35133	-4
3,35200	-4
3,35267	-4
3,35333	-4
3,35400	-4
3,35467	-4
3,35533	-4
3,35600	-4
3,35667	-4
3,35733	-4
3,35800	-4
3,35867	-4
3,35933	-4
3,36000	-4
3,36067	-4
3,36133	-4
3,36200	-4
3,36267	-4
3,36333	-4
3,36400	-4
3,36467	-4
3,36533	-4
3,36600	-4
3,36667	-4
3,36733	-4
3,36800	-4
3,36867	-4
3,36933	-4
3,37000	-4
3,37067	-4
3,37133	-4
3,37200	-4
3,37267	-4
3,37333	-4
3,37400	-4
3,37467	-4
3,37533	-4
3,37600	-4
3,37667	-4
3,37733	-4
3,37800	-4
3,37867	-4
3,37933	-4
3,38000	-4
3,38067	-4
3,38133	-4
3,38200	-4
3,38267	-4
3,38333	-4
3,38400	-4
3,38467	-4
3,38533	-4
3,38600	-4
3,38667	-4
3,38733	-4
3,38800	-4
3,38867	-4
3,38933	-4
3,39000	-4
3,39067	-4
3,39133	-4
3,39200	-4
3,39267	-4
3,39333	-4
3,39400	-4
3,39467	-4
3,39533	-4
3,39600	-4
3,39667	-4
3,39733	-4
3,39800	-4
3,39867	-4
3,39933	-4
3,40000	-4
3,40067	-4
3,40133	-4
3,40200	-4
3,40267	-4
3,40333	-4
3,40400	-4
3,40467	-4
3,40533	-4
3,40600	-4
3,40667	-4
3,40733	-4
3,40800	-4
3,40867	-4
3,40933	-4
3,41000	-4
3,41067	-4
3,41133	-4
3,41200	-4
3,41267	-4
3,41333	-4
3,41400	-4
3,41467	-4
3,41533	-4
3,41600	-4
3,41667	-4
3,41733	-4
3,41800	-4
3,41867	-4
3,41933	-4
3,42000	-4
3,42067	-4
3,42133	-4
3,42200	-4
3,42267	-4
3,42333	-4
3,42400	-4
3,42467	-4
3,42533	-4
3,42600	-4
3,42667	-4
3,42733	-4
3,42800	-4
3,42867	-4
3,42933	-4
3,43000	-4
3,43067	-4
3,43133	-4
3,43200	-4
3,43267	-4
3,43333	-4
3,43400	-4
3,43467	-4
3,43533	-4
3,43600	-4
3,43667	-4
3,43733	-4
3,43800	-4
3,43867	-4
3,43933	-4
3,44000	-4
3,44067	-4
3,44133	-4
3,44200	-4
3,44267	-4
3,44333	-4
3,44400	-4
3,44467	-4
3,44533	-4
3,44600	-4
3,44667	-4
3,44733	-4
3,44800	-4
3,44867	-4
3,44933	-4
3,45000	-4
3,45067	-4
3,45133	-4
3,45200	-4
3,45267	-4
3,45333	-4
3,45400	-4
3,45467	-4
3,45533	-4
3,45600	-4
3,45667	-4
3,45733	-4
3,45800	-4
3,45867	-4
3,45933	-4
3,46000	-4
3,46067	-4
3,46133	-4
3,46200	-4
3,46267	-4
3,46333	-4
3,46400	-4
3,46467	-4
3,46533	-4
3,46600	-4
3,46667	-4
3,46733	-4
3,46800	-4
3,46867	-4
3,46933	-4
3,47000	-4
3,47067	-4
3,47133	-4
3,47200	-4
3,47267	-4
3,47333	-4
3,47400	-4
3,47467	-4
3,47533	-4
3,47600	-4
3,47667	-4
3,47733	-4
3,47800	-4
3,47867	-4
3,47933	-4
3,48000	-4
3,48067	-3
3,48133	-3
3,48200	-3
3,48267	-3
3,48333	-3
3,48400	-3
3,48467	-3
3,48533	-3
3,48600	-3
3,48667	-3
3,48733	-3
3,48800	-3
3,48867	-3
3,48933	-3
3,49000	-3
3,49067	-3
3,49133	-3
3,49200	-3
3,49267	-3
3,49333	-3
3,49400	-3
3,49467	-3
3,49533	-3
3,49600	-3
3,49667	-3
3,49733	-3
3,49800	-3
3,49867	-3
3,49933	-2
3,50000	-2
3,50067	-2
3,50133	-2
3,50200	-2
3,50267	-2
3,50333	-2
3,50400	-2
3,50467	-2
3,50533	-2
3,50600	-2
3,50667	-2
3,50733	-2
3,50800	-2
3,50867	-2
3,50933	-1
3,51000	-1
3,51067	-1
3,51133	-1
3,51200	-1
3,51267	-1
3,51333	-1
3,51400	-1
3,51467	-1
3,51533	-1
3,51600	-0
3,51667	-0
3,51733	-0
3,51800	0
3,51867	0
3,51933	0
3,52000	0
3,52067	0
3,52133	1
3,52200	1
3,52267	1
3,52333	1
3,52400	1
3,52467	1
3,52533	1
3,52600	2
3,52667	2
3,52733	2
3,52800	2
3,52867	2
3,52933	2
3,53000	3
3,53067	3
3,53133	3
3,53200	3
3,53267	3
3,53333	4
3,53400	4
3,53467	4
3,53533	4
3,53600	4
3,53667	5
3,53733	5
3,53800	5
3,53867	5
3,53933	5
3,54000	6
3,54067	6
3,54133	6
3,54200	6
3,54267	7
3,54333	7
3,54400	7
3,54467	7
3,54533	8
3,54600	8
3,54667	8
3,54733	9
3,54800	9
3,54867	9
3,54933	9
3,55000	10
3,55067	10
3,55133	10
3,55200	11
3,55267	11
3,55333	11
3,55400	12
3,55467	12
3,55533	12
3,55600	13
3,55667	13
3,55733	13
3,55800	14
3,55867	14
3,55933	15
3,56000	15
3,56067	15
3,56133	16
3,56200	16
3,56267	17
3,56333	17
3,56400	18
3,56467	18
3,56533	18
3,56600	19
3,56667	19
3,56733	20
3,56800	20
3,56867	21
3,56933	21
3,57000	22
3,57067	22
3,57133	23
3,57200	23
3,57267	24
3,57333	24
3,57400	25
3,57467	26
3,57533	26
3,57600	27
3,57667	27
3,57733	28
3,57800	28
3,57867	29
3,57933	30
3,58000	30
3,58067	31
3,58133	32
3,58200	32
3,58267	33
3,58333	34
3,58400	34
3,58467	35
3,58533	36
3,58600	36
3,58667	37
3,58733	38
3,58800	38
3,58867	39
3,58933	40
3,59000	41
3,59067	41
3,59133	42
3,59200	43
3,59267	44
3,59333	45
3,59400	45
3,59467	46
3,59533	47
3,59600	48
3,59667	49
3,59733	49
3,59800	50
3,59867	51
3,59933	52
3,60000	53
3,60067	54
3,60133	55
3,60200	56
3,60267	57
3,60333	58
3,60400	58
3,60467	59
3,60533	60
3,60600	61
3,60667	62
3,60733	63
3,60800	64
3,60867	65
3,60933	66
3,61000	67
3,61067	69
3,61133	70
3,61200	71
3,61267	72
3,61333	73
3,61400	74
3,61467	75
3,61533	76
3,61600	77
3,61667	79
3,61733	80
3,61800	81
3,61867	82
3,61933	83
3,62000	85
3,62067	86
3,62133	87
3,62200	88
3,62267	89
3,62333	91
3,62400	92
3,62467	93
3,62533	95
3,62600	96
3,62667	97
3,62733	99
3,62800	100
3,62867	101
3,62933	103
3,63000	104
3,63067	105
3,63133	107
3,63200	108
3,63267	110
3,63333	111
3,63400	112
3,63467	114
3,63533	115
3,63600	117
3,63667	118
3,63733	120
3,63800	121
3,63867	123
3,63933	124
3,64000	126
3,64067	128
3,64133	129
3,64200	131
3,64267	132
3,64333	134
3,64400	135
3,64467	137
3,64533	139
3,64600	140
3,64667	142
3,64733	144
3,64800	145
3,64867	147
3,64933	149
3,65000	150
3,65067	152
3,65133	154
3,65200	156
3,65267	157
3,65333	159
3,65400	161
3,65467	163
3,65533	165
3,65600	166
3,65667	168
3,65733	170
3,65800	172
3,65867	174
3,65933	175
3,66000	177
3,66067	179
3,66133	181
3,66200	183
3,66267	185
3,66333	187
3,66400	189
3,66467	191
3,66533	193
3,66600	195
3,66667	196
3,66733	198
3,66800	200
3,66867	202
3,66933	204
3,67000	206
3,67067	208
3,67133	210
3,67200	213
3,67267	215
3,67333	217
3,67400	219
3,67467	221
3,67533	223
3,67600	225
3,67667	227
3,67733	229
3,67800	231
3,67867	233
3,67933	236
3,68000	238
3,68067	240
3,68133	242
3,68200	244
3,68267	247
3,68333	249
3,68400	251
3,68467	253
3,68533	255
3,68600	258
3,68667	260
3,68733	262
3,68800	265
3,68867	267
3,68933	269
3,69000	271
3,69067	274
3,69133	276
3,69200	278
3,69267	281
3,69333	283
3,69400	285
3,69467	288
3,69533	290
3,69600	293
3,69667	295
3,69733	297
3,69800	300
3,69867	302
3,69933	305
3,70000	307
3,70067	310
3,70133	312
3,70200	315
3,70267	317
3,70333	319
3,70400	322
3,70467	324
3,70533	327
3,70600	330
3,70667	332
3,70733	335
3,70800	337
3,70867	340
3,70933	342
3,71000	345
3,71067	347
3,71133	350
3,71200	352
3,71267	355
3,71333	358
3,71400	360
3,71467	363
3,71533	366
3,71600	368
3,71667	371
3,71733	373
3,71800	376
3,71867	379
3,71933	381
3,72000	384
3,72067	387
3,72133	389
3,72200	392
3,72267	395
3,72333	398
3,72400	400
3,72467	403
3,72533	406
3,72600	408
3,72667	411
3,72733	414
3,72800	417
3,72867	420
3,72933	422
3,73000	425
3,73067	428
3,73133	431
3,73200	433
3,73267	436
3,73333	439
3,73400	442
3,73467	445
3,73533	448
3,73600	450
3,73667	453
3,73733	456
3,73800	459
3,73867	462
3,73933	465
3,74000	468
3,74067	470
3,74133	473
3,74200	476
3,74267	479
3,74333	482
3,74400	485
3,74467	488
3,74533	491
3,74600	494
3,74667	497
3,74733	500
3,74800	503
3,74867	505
3,74933	508
3,75000	511
3,75067	514
3,75133	517
3,75200	520
3,75267	523
3,75333	526
3,75400	529
3,75467	532
3,75533	535
3,75600	538
3,75667	541
3,75733	544
3,75800	547
3,75867	550
3,75933	553
3,76000	556
3,76067	559
3,76133	562
3,76200	566
3,76267	569
3,76333	572
3,76400	575
3,76467	578
3,76533	581
3,76600	584
3,76667	587
3,76733	590
3,76800	593
3,76867	596
3,76933	599
3,77000	602
3,77067	606
3,77133	609
3,77200	612
3,77267	615
3,77333	618
3,77400	621
3,77467	624
3,77533	627
3,77600	631
3,77667	634
3,77733	637
3,77800	640
3,77867	643
3,77933	646
3,78000	649
3,78067	653
3,78133	656
3,78200	659
3,78267	662
3,78333	665
3,78400	669
3,78467	672
3,78533	675
3,78600	678
3,78667	681
3,78733	685
3,78800	688
3,78867	691
3,78933	694
3,79000	697
3,79067	701
3,79133	704
3,79200	707
3,79267	710
3,79333	714
3,79400	717
3,79467	720
3,79533	723
3,79600	727
3,79667	730
3,79733	733
3,79800	736
3,79867	740
3,79933	743
3,80000	746
3,80067	749
3,80133	753
3,80200	756
3,80267	759
3,80333	762
3,80400	766
3,80467	769
3,80533	772
3,80600	775
3,80667	779
3,80733	782
3,80800	785
3,80867	789
3,80933	792
3,81000	795
3,81067	799
3,81133	802
3,81200	805
3,81267	809
3,81333	812
3,81400	815
3,81467	818
3,81533	822
3,81600	825
3,81667	828
3,81733	832
3,81800	835
3,81867	838
3,81933	842
3,82000	845
3,82067	848
3,82133	852
3,82200	855
3,82267	859
3,82333	862
3,82400	865
3,82467	869
3,82533	872
3,82600	875
3,82667	879
3,82733	882
3,82800	885
3,82867	889
3,82933	892
3,83000	896
3,83067	899
3,83133	902
3,83200	906
3,83267	909
3,83333	912
3,83400	916
3,83467	919
3,83533	923
3,83600	926
3,83667	929
3,83733	933
3,83800	936
3,83867	940
3,83933	943
3,84000	946
3,84067	950
3,84133	953
3,84200	957
3,84267	960
3,84333	963
3,84400	967
3,84467	970
3,84533	974
3,84600	977
3,84667	980
3,84733	984
3,84800	987
3,84867	991
3,84933	994
3,85000	997
3,85067	1001
3,85133	1004
3,85200	1008
3,85267	1011
3,85333	1015
3,85400	1018
3,85467	1021
3,85533	1025
3,85600	1028
3,85667	1032
3,85733	1035
3,85800	1039
3,85867	1042
3,85933	1045
3,86000	1049
3,86067	1052
3,86133	1056
3,86200	1059
3,86267	1063
3,86333	1066
3,86400	1070
3,86467	1073
3,86533	1076
3,86600	1080
3,86667	1083
3,86733	1087
3,86800	1090
3,86867	1094
3,86933	1097
3,87000	1101
3,87067	1104
3,87133	1107
3,87200	1111
3,87267	1114
3,87333	1118
3,87400	1121
3,87467	1125
3,87533	1128
3,87600	1132
3,87667	1135
3,87733	1139
3,87800	1142
3,87867	1145
3,87933	1149
3,88000	1152
3,88067	1156
3,88133	1159
3,88200	1163
3,88267	1166
3,88333	1170
3,88400	1173
3,88467	1177
3,88533	1180
3,88600	1184
3,88667	1187
3,88733	1191
3,88800	1194
3,88867	1198
3,88933	1201
3,89000	1204
3,89067	1208
3,89133	1211
3,89200	1215
3,89267	1218
3,89333	1222
3,89400	1225
3,89467	1229
3,89533	1232
3,89600	1236
3,89667	1239
3,89733	1243
3,89800	1246
3,89867	1250
3,89933	1253
3,90000	1257
3,90067	1260
3,90133	1264
3,90200	1267
3,90267	1271
3,90333	1274
3,90400	1278
3,90467	1281
3,90533	1285
3,90600	1288
3,90667	1292
3,90733	1295
3,90800	1299
3,90867	1302
3,90933	1306
3,91000	1309
3,91067	1313
3,91133	1316
3,91200	1320
3,91267	1323
3,91333	1327
3,91400	1330
3,91467	1334
3,91533	1337
3,91600	1341
3,91667	1344
3,91733	1348
3,91800	1351
3,91867	1355
3,91933	1358
3,92000	1362
3,92067	1365
3,92133	1369
3,92200	1372
3,92267	1376
3,92333	1379
3,92400	1383
3,92467	1386
3,92533	1390
3,92600	1393
3,92667	1397
3,92733	1400
3,92800	1404
3,92867	1407
3,92933	1411
3,93000	1414
3,93067	1418
3,93133	1421
3,93200	1425
3,93267	1428
3,93333	1432
3,93400	1435
3,93467	1439
3,93533	1442
3,93600	1445
3,93667	1449
3,93733	1452
3,93800	1456
3,93867	1459
3,93933	1463
3,94000	1466
3,94067	1470
3,94133	1473
3,94200	1477
3,94267	1480
3,94333	1484
3,94400	1487
3,94467	1491
3,94533	1494
3,94600	1498
3,94667	1501
3,94733	1505
3,94800	1508
3,94867	1512
3,94933	1515
3,95000	1519
3,95067	1522
3,95133	1526
3,95200	1529
3,95267	1533
3,95333	1536
3,95400	1540
3,95467	1543
3,95533	1547
3,95600	1550
3,95667	1554
3,95733	1557
3,95800	1561
3,95867	1564
3,95933	1568
3,96000	1571
3,96067	1575
3,96133	1578
3,96200	1582
3,96267	1585
3,96333	1589
3,96400	1592
3,96467	1596
3,96533	1599
3,96600	1603
3,96667	1606
3,96733	1610
3,96800	1613
3,96867	1617
3,96933	1620
3,97000	1624
3,97067	1627
3,97133	1631
3,97200	1634
3,97267	1638
3,97333	1641
3,97400	1645
3,97467	1648
3,97533	1652
3,97600	1655
3,97667	1659
3,97733	1662
3,97800	1666
3,97867	1669
3,97933	1673
3,98000	1676
3,98067	1680
3,98133	1683
3,98200	1687
3,98267	1690
3,98333	1694
3,98400	1697
3,98467	1701
3,98533	1704
3,98600	1708
3,98667	1711
3,98733	1715
3,98800	1718
3,98867	1722
3,98933	1725
3,99000	1729
3,99067	1732
3,99133	1735
3,99200	1739
3,99267	1742
3,99333	1746
3,99400	1749
3,99467	1753
3,99533	1756
3,99600	1760
3,99667	1763
3,99733	1767
3,99800	1770
3,99867	1774
3,99933	1777
4,00000	1781
4,00067	1784
4,00133	1788
4,00200	1791
4,00267	1794
4,00333	1798
4,00400	1801
4,00467	1805
4,00533	1808
4,00600	1812
4,00667	1815
4,00733	1819
4,00800	1822
4,00867	1826
4,00933	1829
4,01000	1832
4,01067	1836
4,01133	1839
4,01200	1843
4,01267	1846
4,01333	1850
4,01400	1853
4,01467	1857
4,01533	1860
4,01600	1863
4,01667	1867
4,01733	1870
4,01800	1874
4,01867	1877
4,01933	1881
4,02000	1884
4,02067	1888
4,02133	1891
4,02200	1894
4,02267	1898
4,02333	1901
4,02400	1905
4,02467	1908
4,02533	1912
4,02600	1915
4,02667	1918
4,02733	1922
4,02800	1925
4,02867	1929
4,02933	1932
4,03000	1936
4,03067	1939
4,03133	1942
4,03200	1946
4,03267	1949
4,03333	1953
4,03400	1956
4,03467	1959
4,03533	1963
4,03600	1966
4,03667	1970
4,03733	1973
4,03800	1977
4,03867	1980
4,03933	1983
4,04000	1987
4,04067	1990
4,04133	1994
4,04200	1997
4,04267	2000
4,04333	2004
4,04400	2007
4,04467	2011
4,04533	2014
4,04600	2017
4,04667	2021
4,04733	2024
4,04800	2028
4,04867	2031
4,04933	2034
4,05000	2038
4,05067	2041
4,05133	2045
4,05200	2048
4,05267	2051
4,05333	2055
4,05400	2058
4,05467	2062
4,05533	2065
4,05600	2068
4,05667	2072
4,05733	2075
4,05800	2079
4,05867	2082
4,05933	2085
4,06000	2089
4,06067	2092
4,06133	2096
4,06200	2099
4,06267	2102
4,06333	2106
4,06400	2109
4,06467	2112
4,06533	2116
4,06600	2119
4,06667	2123
4,06733	2126
4,06800	2129
4,06867	2133
4,06933	2136
4,07000	2140
4,07067	2143
4,07133	2146
4,07200	2150
4,07267	2153
4,07333	2156
4,07400	2160
4,07467	2163
4,07533	2167
4,07600	2170
4,07667	2173
4,07733	2177
4,07800	2180
4,07867	2184
4,07933	2187
4,08000	2190
4,08067	2194
4,08133	2197
4,08200	2200
4,08267	2204
4,08333	2207
4,08400	2210
4,08467	2214
4,08533	2217
4,08600	2221
4,08667	2224
4,08733	2227
4,08800	2231
4,08867	2234
4,08933	2237
4,09000	2241
4,09067	2244
4,09133	2247
4,09200	2251
4,09267	2254
4,09333	2257
4,09400	2261
4,09467	2264
4,09533	2267
4,09600	2271
4,09667	2274
4,09733	2278
4,09800	2281
4,09867	2284
4,09933	2288
4,10000	2291
4,10067	2294
4,10133	2298
4,10200	2301
4,10267	2304
4,10333	2308
4,10400	2311
4,10467	2314
4,10533	2318
4,10600	2321
4,10667	2324
4,10733	2328
4,10800	2331
4,10867	2334
4,10933	2338
4,11000	2341
4,11067	2344
4,11133	2348
4,11200	2351
4,11267	2354
4,11333	2357
4,11400	2361
4,11467	2364
4,11533	2367
4,11600	2371
4,11667	2374
4,11733	2377
4,11800	2381
4,11867	2384
4,11933	2387
4,12000	2391
4,12067	2394
4,12133	2397
4,12200	2401
4,12267	2404
4,12333	2407
4,12400	2410
4,12467	2414
4,12533	2417
4,12600	2420
4,12667	2424
4,12733	2427
4,12800	2430
4,12867	2434
4,12933	2437
4,13000	2440
4,13067	2443
4,13133	2447
4,13200	2450
4,13267	2453
4,13333	2457
4,13400	2460
4,13467	2463
4,13533	2466
4,13600	2470
4,13667	2473
4,13733	2476
4,13800	2479
4,13867	2483
4,13933	2486
4,14000	2489
4,14067	2493
4,14133	2496
4,14200	2499
4,14267	2502
4,14333	2506
4,14400	2509
4,14467	2512
4,14533	2515
4,14600	2519
4,14667	2522
4,14733	2525
4,14800	2528
4,14867	2532
4,14933	2535
4,15000	2538
4,15067	2541
4,15133	2545
4,15200	2548
4,15267	2551
4,15333	2554
4,15400	2558
4,15467	2561
4,15533	2564
4,15600	2567
4,15667	2571
4,15733	2574
4,15800	2577
4,15867	2580
4,15933	2584
4,16000	2587
4,16067	2590
4,16133	2593
4,16200	2597
4,16267	2600
4,16333	2603
4,16400	2606
4,16467	2609
4,16533	2613
4,16600	2616
4,16667	2619
4,16733	2622
4,16800	2626
4,16867	2629
4,16933	2632
4,17000	2635
4,17067	2638
4,17133	2642
4,17200	2645
4,17267	2648
4,17333	2651
4,17400	2654
4,17467	2658
4,17533	2661
4,17600	2664
4,17667	2667
4,17733	2670
4,17800	2674
4,17867	2677
4,17933	2680
4,18000	2683
4,18067	2686
4,18133	2690
4,18200	2693
4,18267	2696
4,18333	2699
4,18400	2702
4,18467	2705
4,18533	2709
4,18600	2712
4,18667	2715
4,18733	2718
4,18800	2721
4,18867	2724
4,18933	2728
4,19000	2731
4,19067	2734
4,19133	2737
4,19200	2740
4,19267	2744
4,19333	2747
4,19400	2750
4,19467	2753
4,19533	2756
4,19600	2759
4,19667	2763
4,19733	2766
4,19800	2769
4,19867	2772
4,19933	2775
4,20000	2778
4,20067	2782
4,20133	2785
4,20200	2788
4,20267	2791
4,20333	2794
4,20400	2797
4,20467	2801
4,20533	2804
4,20600	2807
4,20667	2810
4,20733	2813
4,20800	2816
4,20867	2819
4,20933	2823
4,21000	2826
4,21067	2829
4,21133	2832
4,21200	2835
4,21267	2838
4,21333	2842
4,21400	2845
4,21467	2848
4,21533	2851
4,21600	2854
4,21667	2857
4,21733	2860
4,21800	2864
4,21867	2867
4,21933	2870
4,22000	2873
4,22067	2876
4,22133	2879
4,22200	2882
4,22267	2886
4,22333	2889
4,22400	2892
4,22467	2895
4,22533	2898
4,22600	2901
4,22667	2904
4,22733	2908
4,22800	2911
4,22867	2914
4,22933	2917
4,23000	2920
4,23067	2923
4,23133	2926
4,23200	2929
4,23267	2933
4,23333	2936
4,23400	2939
4,23467	2942
4,23533	2945
4,23600	2948
4,23667	2951
4,23733	2954
4,23800	2957
4,23867	2960
4,23933	2964
4,24000	2967
4,24067	2970
4,24133	2973
4,24200	2976
4,24267	2979
4,24333	2982
4,24400	2985
4,24467	2988
4,24533	2991
4,24600	2994
4,24667	2997
4,24733	3000
4,24800	3003
4,24867	3006
4,24933	3009
4,25000	3012
4,25067	3016
4,25133	3019
4,25200	3022
4,25267	3025
4,25333	3028
4,25400	3031
4,25467	3034
4,25533	3036
4,25600	3039
4,25667	3042
4,25733	3045
4,25800	3048
4,25867	3051
4,25933	3054
4,26000	3057
4,26067	3060
4,26133	3063
4,26200	3066
4,26267	3069
4,26333	3072
4,26400	3074
4,26467	3077
4,26533	3080
4,26600	3083
4,26667	3086
4,26733	3088
4,26800	3091
4,26867	3094
4,26933	3096
4,27000	3099
4,27067	3102
4,27133	3104
4,27200	3107
4,27267	3109
4,27333	3112
4,27400	3114
4,27467	3117
4,27533	3119
4,27600	3121
4,27667	3123
4,27733	3126
4,27800	3128
4,27867	3130
4,27933	3132
4,28000	3134
4,28067	3136
4,28133	3137
4,28200	3139
4,28267	3141
4,28333	3142
4,28400	3144
4,28467	3145
4,28533	3146
4,28600	3147
4,28667	3148
4,28733	3149
4,28800	3150
4,28867	3150
4,28933	3151
4,29000	3151
4,29067	3151
4,29133	3151
4,29200	3151
4,29267	3151
4,29333	3150
4,29400	3149
4,29467	3148
4,29533	3147
4,29600	3145
4,29667	3144
4,29733	3142
4,29800	3139
4,29867	3137
4,29933	3134
4,30000	3131
4,30067	3128
4,30133	3124
4,30200	3120
4,30267	3116
4,30333	3111
4,30400	3106
4,30467	3101
4,30533	3095
4,30600	3089
4,30667	3082
4,30733	3076
4,30800	3068
4,30867	3061
4,30933	3053
4,31000	3044
4,31067	3035
4,31133	3026
4,31200	3016
4,31267	3006
4,31333	2996
4,31400	2985
4,31467	2973
4,31533	2961
4,31600	2949
4,31667	2936
4,31733	2923
4,31800	2909
4,31867	2895
4,31933	2881
4,32000	2866
4,32067	2850
4,32133	2835
4,32200	2818
4,32267	2802
4,32333	2785
4,32400	2767
4,32467	2749
4,32533	2731
4,32600	2713
4,32667	2694
4,32733	2675
4,32800	2655
4,32867	2635
4,32933	2615
4,33000	2594
4,33067	2573
4,33133	2552
4,33200	2531
4,33267	2509
4,33333	2487
4,33400	2465
4,33467	2442
4,33533	2420
4,33600	2397
4,33667	2374
4,33733	2351
4,33800	2327
4,33867	2304
4,33933	2280
4,34000	2256
4,34067	2232
4,34133	2208
4,34200	2184
4,34267	2160
4,34333	2136
4,34400	2111
4,34467	2087
4,34533	2063
4,34600	2038
4,34667	2014
4,34733	1989
4,34800	1965
4,34867	1941
4,34933	1916
4,35000	1892
4,35067	1868
4,35133	1844
4,35200	1820
4,35267	1796
4,35333	1772
4,35400	1748
4,35467	1724
4,35533	1701
4,35600	1677
4,35667	1654
4,35733	1631
4,35800	1608
4,35867	1585
4,35933	1562
4,36000	1540
4,36067	1517
4,36133	1495
4,36200	1473
4,36267	1451
4,36333	1430
4,36400	1408
4,36467	1387
4,36533	1366
4,36600	1345
4,36667	1324
4,36733	1304
4,36800	1284
4,36867	1264
4,36933	1244
4,37000	1224
4,37067	1205
4,37133	1186
4,37200	1167
4,37267	1148
4,37333	1130
4,37400	1112
4,37467	1094
4,37533	1076
4,37600	1058
4,37667	1041
4,37733	1024
4,37800	1007
4,37867	991
4,37933	974
4,38000	958
4,38067	942
4,38133	927
4,38200	911
4,38267	896
4,38333	881
4,38400	866
4,38467	851
4,38533	837
4,38600	823
4,38667	809
4,38733	795
4,38800	782
4,38867	769
4,38933	756
4,39000	743
4,39067	730
4,39133	718
4,39200	705
4,39267	693
4,39333	682
4,39400	670
4,39467	659
4,39533	647
4,39600	636
4,39667	626
4,39733	615
4,39800	604
4,39867	594
4,39933	584
4,40000	574
4,40067	564
4,40133	555
4,40200	545
4,40267	536
4,40333	527
4,40400	518
4,40467	509
4,40533	501
4,40600	492
4,40667	484
4,40733	476
4,40800	468
4,40867	460
4,40933	452
4,41000	445
4,41067	437
4,41133	430
4,41200	423
4,41267	416
4,41333	409
4,41400	402
4,41467	396
4,41533	389
4,41600	383
4,41667	377
4,41733	370
4,41800	364
4,41867	358
4,41933	353
4,42000	347
4,42067	341
4,42133	336
4,42200	330
4,42267	325
4,42333	320
4,42400	315
4,42467	310
4,42533	305
4,42600	300
4,42667	296
4,42733	291
4,42800	287
4,42867	282
4,42933	278
4,43000	273
4,43067	269
4,43133	265
4,43200	261
4,43267	257
4,43333	253
4,43400	250
4,43467	246
4,43533	242
4,43600	239
4,43667	235
4,43733	232
4,43800	228
4,43867	225
4,43933	222
4,44000	219
4,44067	215
4,44133	212
4,44200	209
4,44267	206
4,44333	203
4,44400	201
4,44467	198
4,44533	195
4,44600	192
4,44667	190
4,44733	187
4,44800	185
4,44867	182
4,44933	180
4,45000	177
4,45067	175
4,45133	173
4,45200	170
4,45267	168
4,45333	166
4,45400	164
4,45467	162
4,45533	160
4,45600	158
4,45667	156
4,45733	154
4,45800	152
4,45867	150
4,45933	148
4,46000	146
4,46067	144
4,46133	142
4,46200	141
4,46267	139
4,46333	137
4,46400	136
4,46467	134
4,46533	132
4,46600	131
4,46667	129
4,46733	128
4,46800	126
4,46867	125
4,46933	123
4,47000	122
4,47067	121
4,47133	119
4,47200	118
4,47267	117
4,47333	115
4,47400	114
4,47467	113
4,47533	112
4,47600	110
4,47667	109
4,47733	108
4,47800	107
4,47867	106
4,47933	105
4,48000	103
4,48067	102
4,48133	101
4,48200	100
4,48267	99
4,48333	98
4,48400	97
4,48467	96
4,48533	95
4,48600	94
4,48667	93
4,48733	92
4,48800	92
4,48867	91
4,48933	90
4,49000	89
4,49067	88
4,49133	87
4,49200	86
4,49267	86
4,49333	85
4,49400	84
4,49467	83
4,49533	82
4,49600	82
4,49667	81
4,49733	80
4,49800	79
4,49867	79
4,49933	78
4,50000	77
4,50067	77
4,50133	76
4,50200	75
4,50267	75
4,50333	74
4,50400	73
4,50467	73
4,50533	72
4,50600	71
4,50667	71
4,50733	70
4,50800	70
4,50867	69
4,50933	69
4,51000	68
4,51067	67
4,51133	67
4,51200	66
4,51267	66
4,51333	65
4,51400	65
4,51467	64
4,51533	64
4,51600	63
4,51667	63
4,51733	62
4,51800	62
4,51867	61
4,51933	61
4,52000	60
4,52067	60
4,52133	59
4,52200	59
4,52267	58
4,52333	58
4,52400	57
4,52467	57
4,52533	56
4,52600	56
4,52667	56
4,52733	55
4,52800	55
4,52867	54
4,52933	54
4,53000	54
4,53067	53
4,53133	53
4,53200	52
4,53267	52
4,53333	52
4,53400	51
4,53467	51
4,53533	50
4,53600	50
4,53667	50
4,53733	49
4,53800	49
4,53867	49
4,53933	48
4,54000	48
4,54067	48
4,54133	47
4,54200	47
4,54267	47
4,54333	46
4,54400	46
4,54467	46
4,54533	45
4,54600	45
4,54667	45
4,54733	44
4,54800	44
4,54867	44
4,54933	44
4,55000	43
4,55067	43
4,55133	43
4,55200	42
4,55267	42
4,55333	42
4,55400	42
4,55467	41
4,55533	41
4,55600	41
4,55667	40
4,55733	40
4,55800	40
4,55867	40
4,55933	39
4,56000	39
4,56067	39
4,56133	39
4,56200	38
4,56267	38
4,56333	38
4,56400	38
4,56467	37
4,56533	37
4,56600	37
4,56667	37
4,56733	36
4,56800	36
4,56867	36
4,56933	36
4,57000	35
4,57067	35
4,57133	35
4,57200	35
4,57267	35
4,57333	34
4,57400	34
4,57467	34
4,57533	34
4,57600	33
4,57667	33
4,57733	33
4,57800	33
4,57867	33
4,57933	32
4,58000	32
4,58067	32
4,58133	32
4,58200	32
4,58267	31
4,58333	31
4,58400	31
4,58467	31
4,58533	31
4,58600	30
4,58667	30
4,58733	30
4,58800	30
4,58867	30
4,58933	30
4,59000	29
4,59067	29
4,59133	29
4,59200	29
4,59267	29
4,59333	28
4,59400	28
4,59467	28
4,59533	28
4,59600	28
4,59667	28
4,59733	27
4,59800	27
4,59867	27
4,59933	27
4,60000	27
4,60067	27
4,60133	27
4,60200	26
4,60267	26
4,60333	26
4,60400	26
4,60467	26
4,60533	26
4,60600	25
4,60667	25
4,60733	25
4,60800	25
4,60867	25
4,60933	25
4,61000	25
4,61067	24
4,61133	24
4,61200	24
4,61267	24
4,61333	24
4,61400	24
4,61467	24
4,61533	23
4,61600	23
4,61667	23
4,61733	23
4,61800	23
4,61867	23
4,61933	23
4,62000	22
4,62067	22
4,62133	22
4,62200	22
4,62267	22
4,62333	22
4,62400	22
4,62467	22
4,62533	21
4,62600	21
4,62667	21
4,62733	21
4,62800	21
4,62867	21
4,62933	21
4,63000	21
4,63067	20
4,63133	20
4,63200	20
4,63267	20
4,63333	20
4,63400	20
4,63467	20
4,63533	20
4,63600	20
4,63667	19
4,63733	19
4,63800	19
4,63867	19
4,63933	19
4,64000	19
4,64067	19
4,64133	19
4,64200	19
4,64267	18
4,64333	18
4,64400	18
4,64467	18
4,64533	18
4,64600	18
4,64667	18
4,64733	18
4,64800	18
4,64867	17
4,64933	17
4,65000	17
4,65067	17
4,65133	17
4,65200	17
4,65267	17
4,65333	17
4,65400	17
4,65467	17
4,65533	16
4,65600	16
4,65667	16
4,65733	16
4,65800	16
4,65867	16
4,65933	16
4,66000	16
4,66067	16
4,66133	16
4,66200	15
4,66267	15
4,66333	15
4,66400	15
4,66467	15
4,66533	15
4,66600	15
4,66667	15
4,66733	15
4,66800	15
4,66867	15
4,66933	14
4,67000	14
4,67067	14
4,67133	14
4,67200	14
4,67267	14
4,67333	14
4,67400	14
4,67467	14
4,67533	14
4,67600	14
4,67667	14
4,67733	13
4,67800	13
4,67867	13
4,67933	13
4,68000	13
4,68067	13
4,68133	13
4,68200	13
4,68267	13
4,68333	13
4,68400	13
4,68467	13
4,68533	12
4,68600	12
4,68667	12
4,68733	12
4,68800	12
4,68867	12
4,68933	12
4,69000	12
4,69067	12
4,69133	12
4,69200	12
4,69267	12
4,69333	12
4,69400	11
4,69467	11
4,69533	11
4,69600	11
4,69667	11
4,69733	11
4,69800	11
4,69867	11
4,69933	11
4,70000	11
4,70067	11
4,70133	11
4,70200	11
4,70267	11
4,70333	11
4,70400	11
4,70467	10
4,70533	10
4,70600	10
4,70667	10
4,70733	10
4,70800	10
4,70867	10
4,70933	10
4,71000	10
4,71067	10
4,71133	10
4,71200	10
4,71267	10
4,71333	10
4,71400	10
4,71467	10
4,71533	10
4,71600	10
4,71667	9
4,71733	9
4,71800	9
4,71867	9
4,71933	9
4,72000	9
4,72067	9
4,72133	9
4,72200	9
4,72267	9
4,72333	9
4,72400	9
4,72467	9
4,72533	9
4,72600	9
4,72667	9
4,72733	9
4,72800	9
4,72867	9
4,72933	8
4,73000	8
4,73067	8
4,73133	8
4,73200	8
4,73267	8
4,73333	8
4,73400	8
4,73467	8
4,73533	8
4,73600	8
4,73667	8
4,73733	8
4,73800	8
4,73867	8
4,73933	8
4,74000	8
4,74067	8
4,74133	8
4,74200	8
4,74267	7
4,74333	7
4,74400	7
4,74467	7
4,74533	7
4,74600	7
4,74667	7
4,74733	7
4,74800	7
4,74867	7
4,74933	7
4,75000	7
4,75067	7
4,75133	7
4,75200	7
4,75267	7
4,75333	7
4,75400	7
4,75467	7
4,75533	7
4,75600	7
4,75667	7
4,75733	7
4,75800	6
4,75867	6
4,75933	6
4,76000	6
4,76067	6
4,76133	6
4,76200	6
4,76267	6
4,76333	6
4,76400	6
4,76467	6
4,76533	6
4,76600	6
4,76667	6
4,76733	6
4,76800	6
4,76867	6
4,76933	6
4,77000	6
4,77067	6
4,77133	6
4,77200	6
4,77267	6
4,77333	6
4,77400	6
4,77467	6

[Chromatogram Additional (Ch1)]
Maximum	3151
Minimum	-4

