[Header]
Data File Name	D:\Praktikum\WS2020-2021\02122020\1-propanol_100°.gcd
Output Date	02.12.2020
Output Time	16:40:47

[File Information]
Type	Data File
Generated	02.12.2020 14:37:07
Generated by	GCMS
Modified	02.12.2020 14:37:07
Modified by	GCMS

[Sample Information]
Operator Name	GCMS
Acquisition Date	02.12.2020 14:34:43
Type	Unknown
Level	1
Sample Name	1-propanol_100°
Sample ID	1-propanol_100°
ISTD Amount1	1
ISTD Amount2	1
ISTD Amount3	1
ISTD Amount4	1
ISTD Amount5	1
ISTD Amount6	1
ISTD Amount7	1
ISTD Amount8	1
ISTD Amount9	1
ISTD Amount10	1
ISTD Amount11	1
ISTD Amount12	1
ISTD Amount13	1
ISTD Amount14	1
ISTD Amount15	1
ISTD Amount16	1
Sample Amount	1
Dilution Factor	1
Vial#	1
Injection Volume	0
Injection Count	0
Bar Code	

[Original Files]
Data File	D:\Praktikum\WS2020-2021\02122020\1-propanol_100°.gcd
Method File	D:\Praktikum\Alkohole GC-2014.gcm
Batch File	
Report Format File	D:\Praktikum\Praktikum.gcr

[File Comment]


[Configration]
Instrument Name	GC-2014
Instrument #	1
Line #	1

[Peak Table (Ch1)]
# of Peaks	2
Peak#	R.Time	I.Time	F.Time	Area	Height	A/H	Conc.	Mark	ID#	Name	k'	Plate #	Plate Ht.	Tailing	Resolution	Sep.Factor
1	0,655	0,481	1,279	2914	215	13,53	0,00000	S  			0,000	63,514	0,000	1,856	0,000	0,000
2	1,538	1,279	2,324	70115	4599	15,25	0,00000	 V 			1,348	248,719	0,000	1,477	2,463	0,000

[Compound Results (Ch1)]
# of IDs	4
ID#	Name	R.Time	Area	Height	Conc.	Curve	3rd	2nd	1st	Constant
1	Luft	0,000	0	0	0,00000	Default					
2	Dreck	0,000	0	0	0,00000	Default					
3	Propanol	0,000	0	0	0,00000	Default					
4	Butanol	0,000	0	0	0,00000	Default					

[Group Results (Ch1)]
# of Groups	0

[Chromatogram (Ch1)]
Interval(msec)	40
# of Points	3521
Start Time(min)	0,000
End Time(min)	2,347
R.Time	Intensity
0,00000	-2
0,00067	-2
0,00133	-2
0,00200	-2
0,00267	-2
0,00333	-2
0,00400	-2
0,00467	-2
0,00533	-2
0,00600	-2
0,00667	-2
0,00733	-2
0,00800	-2
0,00867	-2
0,00933	-2
0,01000	-2
0,01067	-2
0,01133	-2
0,01200	-2
0,01267	-2
0,01333	-2
0,01400	-2
0,01467	-2
0,01533	-2
0,01600	-2
0,01667	-2
0,01733	-2
0,01800	-2
0,01867	-2
0,01933	-2
0,02000	-2
0,02067	-2
0,02133	-2
0,02200	-2
0,02267	-2
0,02333	-2
0,02400	-2
0,02467	-2
0,02533	-2
0,02600	-2
0,02667	-2
0,02733	-2
0,02800	-2
0,02867	-2
0,02933	-2
0,03000	-2
0,03067	-2
0,03133	-2
0,03200	-2
0,03267	-2
0,03333	-2
0,03400	-2
0,03467	-2
0,03533	-2
0,03600	-2
0,03667	-2
0,03733	-2
0,03800	-2
0,03867	-2
0,03933	-2
0,04000	-2
0,04067	-2
0,04133	-2
0,04200	-2
0,04267	-2
0,04333	-2
0,04400	-2
0,04467	-2
0,04533	-2
0,04600	-2
0,04667	-2
0,04733	-2
0,04800	-2
0,04867	-2
0,04933	-2
0,05000	-2
0,05067	-2
0,05133	-2
0,05200	-2
0,05267	-2
0,05333	-2
0,05400	-2
0,05467	-2
0,05533	-2
0,05600	-2
0,05667	-2
0,05733	-2
0,05800	-2
0,05867	-2
0,05933	-2
0,06000	-2
0,06067	-2
0,06133	-2
0,06200	-2
0,06267	-2
0,06333	-2
0,06400	-2
0,06467	-2
0,06533	-2
0,06600	-2
0,06667	-2
0,06733	-2
0,06800	-2
0,06867	-2
0,06933	-2
0,07000	-2
0,07067	-2
0,07133	-2
0,07200	-2
0,07267	-2
0,07333	-2
0,07400	-2
0,07467	-2
0,07533	-2
0,07600	-2
0,07667	-2
0,07733	-2
0,07800	-2
0,07867	-2
0,07933	-2
0,08000	-2
0,08067	-2
0,08133	-2
0,08200	-2
0,08267	-2
0,08333	-2
0,08400	-2
0,08467	-2
0,08533	-2
0,08600	-2
0,08667	-2
0,08733	-2
0,08800	-2
0,08867	-2
0,08933	-2
0,09000	-2
0,09067	-2
0,09133	-2
0,09200	-2
0,09267	-2
0,09333	-2
0,09400	-2
0,09467	-2
0,09533	-2
0,09600	-2
0,09667	-2
0,09733	-2
0,09800	-2
0,09867	-2
0,09933	-2
0,10000	-2
0,10067	-2
0,10133	-2
0,10200	-2
0,10267	-2
0,10333	-2
0,10400	-2
0,10467	-2
0,10533	-2
0,10600	-2
0,10667	-2
0,10733	-2
0,10800	-2
0,10867	-2
0,10933	-2
0,11000	-2
0,11067	-2
0,11133	-2
0,11200	-2
0,11267	-2
0,11333	-2
0,11400	-2
0,11467	-2
0,11533	-2
0,11600	-2
0,11667	-2
0,11733	-2
0,11800	-2
0,11867	-2
0,11933	-2
0,12000	-2
0,12067	-2
0,12133	-2
0,12200	-2
0,12267	-2
0,12333	-2
0,12400	-2
0,12467	-2
0,12533	-2
0,12600	-2
0,12667	-2
0,12733	-2
0,12800	-2
0,12867	-2
0,12933	-2
0,13000	-2
0,13067	-2
0,13133	-2
0,13200	-2
0,13267	-2
0,13333	-2
0,13400	-2
0,13467	-2
0,13533	-2
0,13600	-2
0,13667	-2
0,13733	-2
0,13800	-2
0,13867	-2
0,13933	-2
0,14000	-2
0,14067	-2
0,14133	-2
0,14200	-2
0,14267	-2
0,14333	-2
0,14400	-2
0,14467	-2
0,14533	-2
0,14600	-2
0,14667	-2
0,14733	-2
0,14800	-2
0,14867	-2
0,14933	-2
0,15000	-2
0,15067	-2
0,15133	-2
0,15200	-2
0,15267	-2
0,15333	-2
0,15400	-2
0,15467	-2
0,15533	-2
0,15600	-2
0,15667	-2
0,15733	-2
0,15800	-2
0,15867	-2
0,15933	-2
0,16000	-2
0,16067	-2
0,16133	-2
0,16200	-2
0,16267	-2
0,16333	-2
0,16400	-2
0,16467	-2
0,16533	-2
0,16600	-2
0,16667	-2
0,16733	-2
0,16800	-2
0,16867	-2
0,16933	-2
0,17000	-2
0,17067	-2
0,17133	-2
0,17200	-2
0,17267	-2
0,17333	-2
0,17400	-2
0,17467	-2
0,17533	-2
0,17600	-2
0,17667	-2
0,17733	-2
0,17800	-2
0,17867	-2
0,17933	-2
0,18000	-2
0,18067	-2
0,18133	-2
0,18200	-2
0,18267	-2
0,18333	-2
0,18400	-2
0,18467	-2
0,18533	-2
0,18600	-2
0,18667	-2
0,18733	-2
0,18800	-2
0,18867	-2
0,18933	-2
0,19000	-2
0,19067	-2
0,19133	-2
0,19200	-2
0,19267	-2
0,19333	-2
0,19400	-2
0,19467	-2
0,19533	-2
0,19600	-2
0,19667	-2
0,19733	-2
0,19800	-2
0,19867	-2
0,19933	-2
0,20000	-2
0,20067	-2
0,20133	-2
0,20200	-2
0,20267	-2
0,20333	-2
0,20400	-2
0,20467	-2
0,20533	-2
0,20600	-2
0,20667	-2
0,20733	-2
0,20800	-2
0,20867	-2
0,20933	-2
0,21000	-2
0,21067	-2
0,21133	-2
0,21200	-2
0,21267	-2
0,21333	-2
0,21400	-2
0,21467	-2
0,21533	-2
0,21600	-2
0,21667	-2
0,21733	-2
0,21800	-2
0,21867	-2
0,21933	-2
0,22000	-2
0,22067	-2
0,22133	-2
0,22200	-2
0,22267	-2
0,22333	-2
0,22400	-2
0,22467	-2
0,22533	-2
0,22600	-2
0,22667	-2
0,22733	-2
0,22800	-2
0,22867	-2
0,22933	-2
0,23000	-2
0,23067	-2
0,23133	-2
0,23200	-2
0,23267	-2
0,23333	-2
0,23400	-2
0,23467	-2
0,23533	-2
0,23600	-2
0,23667	-2
0,23733	-2
0,23800	-2
0,23867	-2
0,23933	-2
0,24000	-2
0,24067	-2
0,24133	-2
0,24200	-2
0,24267	-2
0,24333	-2
0,24400	-2
0,24467	-2
0,24533	-2
0,24600	-2
0,24667	-2
0,24733	-2
0,24800	-2
0,24867	-2
0,24933	-1
0,25000	-1
0,25067	-1
0,25133	-1
0,25200	-1
0,25267	-1
0,25333	-1
0,25400	-1
0,25467	-1
0,25533	-1
0,25600	-1
0,25667	-1
0,25733	-1
0,25800	-1
0,25867	-1
0,25933	-1
0,26000	-1
0,26067	-1
0,26133	-1
0,26200	-1
0,26267	-1
0,26333	-1
0,26400	-1
0,26467	-1
0,26533	-1
0,26600	-1
0,26667	-1
0,26733	-1
0,26800	-1
0,26867	-1
0,26933	-1
0,27000	-1
0,27067	-1
0,27133	-1
0,27200	-1
0,27267	-1
0,27333	-1
0,27400	-1
0,27467	-1
0,27533	-1
0,27600	-1
0,27667	-1
0,27733	-1
0,27800	-1
0,27867	-1
0,27933	-1
0,28000	-1
0,28067	-1
0,28133	-1
0,28200	-1
0,28267	-1
0,28333	-1
0,28400	-1
0,28467	-1
0,28533	-1
0,28600	-1
0,28667	-1
0,28733	-1
0,28800	-1
0,28867	-1
0,28933	-1
0,29000	-1
0,29067	-1
0,29133	-1
0,29200	-1
0,29267	-1
0,29333	-1
0,29400	-1
0,29467	-1
0,29533	-1
0,29600	-1
0,29667	-1
0,29733	-1
0,29800	-1
0,29867	-1
0,29933	-1
0,30000	-1
0,30067	-1
0,30133	-1
0,30200	-1
0,30267	-1
0,30333	-1
0,30400	-1
0,30467	-1
0,30533	-1
0,30600	-1
0,30667	-1
0,30733	-1
0,30800	-1
0,30867	-1
0,30933	-1
0,31000	-1
0,31067	-1
0,31133	-1
0,31200	-1
0,31267	-1
0,31333	-1
0,31400	-1
0,31467	-1
0,31533	-1
0,31600	-1
0,31667	-1
0,31733	-1
0,31800	-1
0,31867	-1
0,31933	-1
0,32000	-1
0,32067	-1
0,32133	-1
0,32200	-1
0,32267	-1
0,32333	-1
0,32400	-1
0,32467	-1
0,32533	-1
0,32600	-1
0,32667	-1
0,32733	-1
0,32800	-1
0,32867	-1
0,32933	-1
0,33000	-1
0,33067	-1
0,33133	-1
0,33200	-1
0,33267	-1
0,33333	-1
0,33400	-1
0,33467	-1
0,33533	-1
0,33600	-1
0,33667	-1
0,33733	-1
0,33800	-1
0,33867	-1
0,33933	-1
0,34000	-1
0,34067	-1
0,34133	-1
0,34200	-1
0,34267	-1
0,34333	-1
0,34400	-1
0,34467	-1
0,34533	-1
0,34600	-1
0,34667	-1
0,34733	-1
0,34800	-1
0,34867	-1
0,34933	-1
0,35000	-1
0,35067	-1
0,35133	-1
0,35200	-1
0,35267	-1
0,35333	-1
0,35400	-1
0,35467	-1
0,35533	-1
0,35600	-1
0,35667	-1
0,35733	-1
0,35800	-1
0,35867	-1
0,35933	-1
0,36000	-1
0,36067	-1
0,36133	-1
0,36200	-1
0,36267	-1
0,36333	-1
0,36400	-1
0,36467	-1
0,36533	-1
0,36600	-1
0,36667	-1
0,36733	-1
0,36800	-1
0,36867	-1
0,36933	-1
0,37000	-1
0,37067	-1
0,37133	-1
0,37200	-1
0,37267	-1
0,37333	-1
0,37400	-1
0,37467	-1
0,37533	-1
0,37600	-1
0,37667	-1
0,37733	-1
0,37800	-1
0,37867	-1
0,37933	-1
0,38000	-1
0,38067	-1
0,38133	-1
0,38200	-1
0,38267	-1
0,38333	-1
0,38400	-1
0,38467	-1
0,38533	-1
0,38600	-1
0,38667	-1
0,38733	-1
0,38800	-1
0,38867	-1
0,38933	-1
0,39000	-1
0,39067	-1
0,39133	-1
0,39200	-1
0,39267	-1
0,39333	-1
0,39400	-1
0,39467	-1
0,39533	-1
0,39600	-1
0,39667	-1
0,39733	-1
0,39800	-1
0,39867	-1
0,39933	-1
0,40000	-1
0,40067	-1
0,40133	-1
0,40200	-1
0,40267	-1
0,40333	-1
0,40400	-1
0,40467	-1
0,40533	-1
0,40600	-1
0,40667	-1
0,40733	-1
0,40800	-1
0,40867	-1
0,40933	-1
0,41000	-1
0,41067	-1
0,41133	-1
0,41200	-1
0,41267	-1
0,41333	-1
0,41400	-1
0,41467	-1
0,41533	-1
0,41600	-1
0,41667	-1
0,41733	-1
0,41800	-1
0,41867	-1
0,41933	-1
0,42000	-1
0,42067	-1
0,42133	-1
0,42200	-1
0,42267	-1
0,42333	-1
0,42400	-1
0,42467	-1
0,42533	-1
0,42600	-1
0,42667	-1
0,42733	-1
0,42800	-1
0,42867	-1
0,42933	-1
0,43000	-1
0,43067	-1
0,43133	-1
0,43200	-1
0,43267	-1
0,43333	-1
0,43400	-1
0,43467	-1
0,43533	-1
0,43600	-1
0,43667	-1
0,43733	-1
0,43800	-1
0,43867	-1
0,43933	-1
0,44000	-1
0,44067	-1
0,44133	-1
0,44200	-1
0,44267	-1
0,44333	-1
0,44400	-1
0,44467	-1
0,44533	-1
0,44600	-1
0,44667	-1
0,44733	-1
0,44800	-1
0,44867	-1
0,44933	-1
0,45000	-1
0,45067	-1
0,45133	-1
0,45200	-1
0,45267	-1
0,45333	-1
0,45400	-1
0,45467	-1
0,45533	-1
0,45600	-1
0,45667	-1
0,45733	-1
0,45800	-1
0,45867	-1
0,45933	-1
0,46000	-1
0,46067	-1
0,46133	-1
0,46200	-1
0,46267	-1
0,46333	-1
0,46400	-1
0,46467	-1
0,46533	-1
0,46600	-1
0,46667	-1
0,46733	-1
0,46800	-1
0,46867	-1
0,46933	-1
0,47000	-1
0,47067	-1
0,47133	-1
0,47200	-1
0,47267	-1
0,47333	-1
0,47400	-1
0,47467	-1
0,47533	-1
0,47600	-1
0,47667	-1
0,47733	-1
0,47800	-1
0,47867	-1
0,47933	-1
0,48000	-1
0,48067	-1
0,48133	-1
0,48200	-1
0,48267	-1
0,48333	-1
0,48400	-1
0,48467	-1
0,48533	-1
0,48600	-1
0,48667	-1
0,48733	-1
0,48800	-1
0,48867	-1
0,48933	-1
0,49000	-0
0,49067	-0
0,49133	-0
0,49200	-0
0,49267	-0
0,49333	-0
0,49400	-0
0,49467	-0
0,49533	0
0,49600	0
0,49667	0
0,49733	0
0,49800	0
0,49867	0
0,49933	0
0,50000	1
0,50067	1
0,50133	1
0,50200	1
0,50267	1
0,50333	1
0,50400	1
0,50467	1
0,50533	2
0,50600	2
0,50667	2
0,50733	2
0,50800	2
0,50867	3
0,50933	3
0,51000	3
0,51067	3
0,51133	3
0,51200	4
0,51267	4
0,51333	4
0,51400	4
0,51467	5
0,51533	5
0,51600	5
0,51667	6
0,51733	6
0,51800	6
0,51867	7
0,51933	7
0,52000	8
0,52067	8
0,52133	8
0,52200	9
0,52267	9
0,52333	10
0,52400	10
0,52467	11
0,52533	11
0,52600	12
0,52667	12
0,52733	13
0,52800	14
0,52867	14
0,52933	15
0,53000	16
0,53067	16
0,53133	17
0,53200	18
0,53267	18
0,53333	19
0,53400	20
0,53467	21
0,53533	21
0,53600	22
0,53667	23
0,53733	24
0,53800	25
0,53867	26
0,53933	27
0,54000	27
0,54067	28
0,54133	29
0,54200	30
0,54267	31
0,54333	32
0,54400	33
0,54467	34
0,54533	35
0,54600	37
0,54667	38
0,54733	39
0,54800	40
0,54867	41
0,54933	42
0,55000	43
0,55067	45
0,55133	46
0,55200	47
0,55267	48
0,55333	50
0,55400	51
0,55467	52
0,55533	54
0,55600	55
0,55667	56
0,55733	58
0,55800	59
0,55867	60
0,55933	62
0,56000	63
0,56067	65
0,56133	66
0,56200	67
0,56267	69
0,56333	70
0,56400	72
0,56467	73
0,56533	75
0,56600	76
0,56667	78
0,56733	79
0,56800	81
0,56867	82
0,56933	84
0,57000	86
0,57067	87
0,57133	89
0,57200	90
0,57267	92
0,57333	93
0,57400	95
0,57467	97
0,57533	98
0,57600	100
0,57667	101
0,57733	103
0,57800	104
0,57867	106
0,57933	108
0,58000	109
0,58067	111
0,58133	112
0,58200	114
0,58267	116
0,58333	117
0,58400	119
0,58467	120
0,58533	122
0,58600	124
0,58667	125
0,58733	127
0,58800	128
0,58867	130
0,58933	131
0,59000	133
0,59067	134
0,59133	136
0,59200	138
0,59267	139
0,59333	141
0,59400	142
0,59467	144
0,59533	145
0,59600	147
0,59667	148
0,59733	149
0,59800	151
0,59867	152
0,59933	154
0,60000	155
0,60067	157
0,60133	158
0,60200	159
0,60267	161
0,60333	162
0,60400	163
0,60467	165
0,60533	166
0,60600	167
0,60667	169
0,60733	170
0,60800	171
0,60867	172
0,60933	174
0,61000	175
0,61067	176
0,61133	177
0,61200	178
0,61267	179
0,61333	181
0,61400	182
0,61467	183
0,61533	184
0,61600	185
0,61667	186
0,61733	187
0,61800	188
0,61867	189
0,61933	190
0,62000	191
0,62067	192
0,62133	193
0,62200	194
0,62267	195
0,62333	195
0,62400	196
0,62467	197
0,62533	198
0,62600	199
0,62667	200
0,62733	200
0,62800	201
0,62867	202
0,62933	202
0,63000	203
0,63067	204
0,63133	204
0,63200	205
0,63267	206
0,63333	206
0,63400	207
0,63467	207
0,63533	208
0,63600	208
0,63667	209
0,63733	209
0,63800	210
0,63867	210
0,63933	211
0,64000	211
0,64067	211
0,64133	212
0,64200	212
0,64267	212
0,64333	213
0,64400	213
0,64467	213
0,64533	213
0,64600	214
0,64667	214
0,64733	214
0,64800	214
0,64867	214
0,64933	215
0,65000	215
0,65067	215
0,65133	215
0,65200	215
0,65267	215
0,65333	215
0,65400	215
0,65467	215
0,65533	215
0,65600	215
0,65667	215
0,65733	215
0,65800	215
0,65867	215
0,65933	215
0,66000	215
0,66067	215
0,66133	215
0,66200	214
0,66267	214
0,66333	214
0,66400	214
0,66467	214
0,66533	213
0,66600	213
0,66667	213
0,66733	213
0,66800	212
0,66867	212
0,66933	212
0,67000	211
0,67067	211
0,67133	211
0,67200	210
0,67267	210
0,67333	210
0,67400	209
0,67467	209
0,67533	208
0,67600	208
0,67667	208
0,67733	207
0,67800	207
0,67867	206
0,67933	206
0,68000	205
0,68067	205
0,68133	204
0,68200	204
0,68267	203
0,68333	203
0,68400	202
0,68467	202
0,68533	201
0,68600	200
0,68667	200
0,68733	199
0,68800	199
0,68867	198
0,68933	197
0,69000	197
0,69067	196
0,69133	196
0,69200	195
0,69267	194
0,69333	194
0,69400	193
0,69467	192
0,69533	192
0,69600	191
0,69667	190
0,69733	190
0,69800	189
0,69867	188
0,69933	188
0,70000	187
0,70067	186
0,70133	186
0,70200	185
0,70267	184
0,70333	183
0,70400	183
0,70467	182
0,70533	181
0,70600	181
0,70667	180
0,70733	179
0,70800	178
0,70867	178
0,70933	177
0,71000	176
0,71067	175
0,71133	175
0,71200	174
0,71267	173
0,71333	172
0,71400	172
0,71467	171
0,71533	170
0,71600	169
0,71667	169
0,71733	168
0,71800	167
0,71867	166
0,71933	166
0,72000	165
0,72067	164
0,72133	163
0,72200	163
0,72267	162
0,72333	161
0,72400	160
0,72467	159
0,72533	159
0,72600	158
0,72667	157
0,72733	156
0,72800	156
0,72867	155
0,72933	154
0,73000	153
0,73067	153
0,73133	152
0,73200	151
0,73267	150
0,73333	149
0,73400	149
0,73467	148
0,73533	147
0,73600	146
0,73667	146
0,73733	145
0,73800	144
0,73867	143
0,73933	143
0,74000	142
0,74067	141
0,74133	140
0,74200	140
0,74267	139
0,74333	138
0,74400	137
0,74467	137
0,74533	136
0,74600	135
0,74667	135
0,74733	134
0,74800	133
0,74867	132
0,74933	132
0,75000	131
0,75067	130
0,75133	129
0,75200	129
0,75267	128
0,75333	127
0,75400	127
0,75467	126
0,75533	125
0,75600	125
0,75667	124
0,75733	123
0,75800	122
0,75867	122
0,75933	121
0,76000	120
0,76067	120
0,76133	119
0,76200	118
0,76267	118
0,76333	117
0,76400	116
0,76467	116
0,76533	115
0,76600	114
0,76667	114
0,76733	113
0,76800	112
0,76867	112
0,76933	111
0,77000	110
0,77067	110
0,77133	109
0,77200	108
0,77267	108
0,77333	107
0,77400	107
0,77467	106
0,77533	105
0,77600	105
0,77667	104
0,77733	103
0,77800	103
0,77867	102
0,77933	102
0,78000	101
0,78067	100
0,78133	100
0,78200	99
0,78267	99
0,78333	98
0,78400	97
0,78467	97
0,78533	96
0,78600	96
0,78667	95
0,78733	95
0,78800	94
0,78867	93
0,78933	93
0,79000	92
0,79067	92
0,79133	91
0,79200	91
0,79267	90
0,79333	90
0,79400	89
0,79467	88
0,79533	88
0,79600	87
0,79667	87
0,79733	86
0,79800	86
0,79867	85
0,79933	85
0,80000	84
0,80067	84
0,80133	83
0,80200	83
0,80267	82
0,80333	82
0,80400	81
0,80467	81
0,80533	80
0,80600	80
0,80667	79
0,80733	79
0,80800	78
0,80867	78
0,80933	77
0,81000	77
0,81067	76
0,81133	76
0,81200	75
0,81267	75
0,81333	74
0,81400	74
0,81467	74
0,81533	73
0,81600	73
0,81667	72
0,81733	72
0,81800	71
0,81867	71
0,81933	70
0,82000	70
0,82067	70
0,82133	69
0,82200	69
0,82267	68
0,82333	68
0,82400	67
0,82467	67
0,82533	67
0,82600	66
0,82667	66
0,82733	65
0,82800	65
0,82867	65
0,82933	64
0,83000	64
0,83067	63
0,83133	63
0,83200	63
0,83267	62
0,83333	62
0,83400	61
0,83467	61
0,83533	61
0,83600	60
0,83667	60
0,83733	60
0,83800	59
0,83867	59
0,83933	58
0,84000	58
0,84067	58
0,84133	57
0,84200	57
0,84267	57
0,84333	56
0,84400	56
0,84467	56
0,84533	55
0,84600	55
0,84667	55
0,84733	54
0,84800	54
0,84867	54
0,84933	53
0,85000	53
0,85067	53
0,85133	52
0,85200	52
0,85267	52
0,85333	51
0,85400	51
0,85467	51
0,85533	50
0,85600	50
0,85667	50
0,85733	49
0,85800	49
0,85867	49
0,85933	48
0,86000	48
0,86067	48
0,86133	48
0,86200	47
0,86267	47
0,86333	47
0,86400	46
0,86467	46
0,86533	46
0,86600	46
0,86667	45
0,86733	45
0,86800	45
0,86867	44
0,86933	44
0,87000	44
0,87067	44
0,87133	43
0,87200	43
0,87267	43
0,87333	43
0,87400	42
0,87467	42
0,87533	42
0,87600	41
0,87667	41
0,87733	41
0,87800	41
0,87867	40
0,87933	40
0,88000	40
0,88067	40
0,88133	39
0,88200	39
0,88267	39
0,88333	39
0,88400	38
0,88467	38
0,88533	38
0,88600	38
0,88667	38
0,88733	37
0,88800	37
0,88867	37
0,88933	37
0,89000	36
0,89067	36
0,89133	36
0,89200	36
0,89267	35
0,89333	35
0,89400	35
0,89467	35
0,89533	35
0,89600	34
0,89667	34
0,89733	34
0,89800	34
0,89867	34
0,89933	33
0,90000	33
0,90067	33
0,90133	33
0,90200	33
0,90267	32
0,90333	32
0,90400	32
0,90467	32
0,90533	31
0,90600	31
0,90667	31
0,90733	31
0,90800	31
0,90867	30
0,90933	30
0,91000	30
0,91067	30
0,91133	30
0,91200	30
0,91267	29
0,91333	29
0,91400	29
0,91467	29
0,91533	29
0,91600	28
0,91667	28
0,91733	28
0,91800	28
0,91867	28
0,91933	28
0,92000	27
0,92067	27
0,92133	27
0,92200	27
0,92267	27
0,92333	26
0,92400	26
0,92467	26
0,92533	26
0,92600	26
0,92667	26
0,92733	25
0,92800	25
0,92867	25
0,92933	25
0,93000	25
0,93067	25
0,93133	25
0,93200	24
0,93267	24
0,93333	24
0,93400	24
0,93467	24
0,93533	24
0,93600	23
0,93667	23
0,93733	23
0,93800	23
0,93867	23
0,93933	23
0,94000	23
0,94067	22
0,94133	22
0,94200	22
0,94267	22
0,94333	22
0,94400	22
0,94467	22
0,94533	21
0,94600	21
0,94667	21
0,94733	21
0,94800	21
0,94867	21
0,94933	21
0,95000	21
0,95067	20
0,95133	20
0,95200	20
0,95267	20
0,95333	20
0,95400	20
0,95467	20
0,95533	20
0,95600	19
0,95667	19
0,95733	19
0,95800	19
0,95867	19
0,95933	19
0,96000	19
0,96067	19
0,96133	18
0,96200	18
0,96267	18
0,96333	18
0,96400	18
0,96467	18
0,96533	18
0,96600	18
0,96667	18
0,96733	17
0,96800	17
0,96867	17
0,96933	17
0,97000	17
0,97067	17
0,97133	17
0,97200	17
0,97267	16
0,97333	16
0,97400	16
0,97467	16
0,97533	16
0,97600	16
0,97667	16
0,97733	16
0,97800	16
0,97867	15
0,97933	15
0,98000	15
0,98067	15
0,98133	15
0,98200	15
0,98267	15
0,98333	15
0,98400	15
0,98467	15
0,98533	14
0,98600	14
0,98667	14
0,98733	14
0,98800	14
0,98867	14
0,98933	14
0,99000	14
0,99067	14
0,99133	14
0,99200	14
0,99267	14
0,99333	13
0,99400	13
0,99467	13
0,99533	13
0,99600	13
0,99667	13
0,99733	13
0,99800	13
0,99867	13
0,99933	13
1,00000	13
1,00067	13
1,00133	13
1,00200	13
1,00267	12
1,00333	12
1,00400	12
1,00467	12
1,00533	12
1,00600	12
1,00667	12
1,00733	12
1,00800	12
1,00867	12
1,00933	12
1,01000	12
1,01067	12
1,01133	12
1,01200	12
1,01267	12
1,01333	12
1,01400	12
1,01467	11
1,01533	11
1,01600	11
1,01667	11
1,01733	11
1,01800	11
1,01867	11
1,01933	11
1,02000	11
1,02067	11
1,02133	11
1,02200	11
1,02267	11
1,02333	11
1,02400	11
1,02467	11
1,02533	11
1,02600	11
1,02667	11
1,02733	11
1,02800	11
1,02867	11
1,02933	11
1,03000	11
1,03067	11
1,03133	11
1,03200	11
1,03267	11
1,03333	11
1,03400	11
1,03467	11
1,03533	11
1,03600	11
1,03667	11
1,03733	11
1,03800	11
1,03867	11
1,03933	11
1,04000	11
1,04067	11
1,04133	11
1,04200	11
1,04267	11
1,04333	11
1,04400	11
1,04467	11
1,04533	11
1,04600	11
1,04667	11
1,04733	11
1,04800	11
1,04867	11
1,04933	11
1,05000	11
1,05067	11
1,05133	11
1,05200	11
1,05267	11
1,05333	11
1,05400	11
1,05467	11
1,05533	11
1,05600	11
1,05667	11
1,05733	11
1,05800	11
1,05867	11
1,05933	11
1,06000	11
1,06067	11
1,06133	11
1,06200	11
1,06267	11
1,06333	11
1,06400	11
1,06467	11
1,06533	11
1,06600	11
1,06667	11
1,06733	11
1,06800	11
1,06867	11
1,06933	11
1,07000	11
1,07067	11
1,07133	11
1,07200	11
1,07267	11
1,07333	11
1,07400	11
1,07467	11
1,07533	11
1,07600	11
1,07667	11
1,07733	11
1,07800	11
1,07867	11
1,07933	11
1,08000	11
1,08067	11
1,08133	11
1,08200	11
1,08267	12
1,08333	12
1,08400	12
1,08467	12
1,08533	12
1,08600	12
1,08667	12
1,08733	12
1,08800	12
1,08867	12
1,08933	12
1,09000	12
1,09067	12
1,09133	12
1,09200	12
1,09267	12
1,09333	12
1,09400	12
1,09467	12
1,09533	12
1,09600	12
1,09667	12
1,09733	12
1,09800	12
1,09867	12
1,09933	12
1,10000	12
1,10067	12
1,10133	12
1,10200	12
1,10267	12
1,10333	12
1,10400	12
1,10467	12
1,10533	12
1,10600	12
1,10667	12
1,10733	12
1,10800	12
1,10867	12
1,10933	12
1,11000	12
1,11067	12
1,11133	12
1,11200	12
1,11267	12
1,11333	12
1,11400	12
1,11467	12
1,11533	12
1,11600	12
1,11667	12
1,11733	12
1,11800	12
1,11867	12
1,11933	13
1,12000	13
1,12067	13
1,12133	13
1,12200	13
1,12267	13
1,12333	13
1,12400	13
1,12467	13
1,12533	13
1,12600	13
1,12667	13
1,12733	13
1,12800	13
1,12867	13
1,12933	13
1,13000	13
1,13067	13
1,13133	13
1,13200	13
1,13267	13
1,13333	13
1,13400	13
1,13467	13
1,13533	13
1,13600	13
1,13667	13
1,13733	13
1,13800	13
1,13867	13
1,13933	13
1,14000	13
1,14067	13
1,14133	13
1,14200	13
1,14267	13
1,14333	13
1,14400	13
1,14467	13
1,14533	13
1,14600	13
1,14667	13
1,14733	13
1,14800	12
1,14867	12
1,14933	12
1,15000	12
1,15067	12
1,15133	12
1,15200	12
1,15267	12
1,15333	12
1,15400	12
1,15467	12
1,15533	12
1,15600	12
1,15667	12
1,15733	12
1,15800	12
1,15867	12
1,15933	12
1,16000	12
1,16067	12
1,16133	12
1,16200	12
1,16267	12
1,16333	12
1,16400	12
1,16467	12
1,16533	12
1,16600	12
1,16667	12
1,16733	12
1,16800	12
1,16867	12
1,16933	12
1,17000	12
1,17067	12
1,17133	12
1,17200	12
1,17267	12
1,17333	12
1,17400	12
1,17467	12
1,17533	12
1,17600	12
1,17667	12
1,17733	12
1,17800	12
1,17867	12
1,17933	12
1,18000	12
1,18067	12
1,18133	11
1,18200	11
1,18267	11
1,18333	11
1,18400	11
1,18467	11
1,18533	11
1,18600	11
1,18667	11
1,18733	11
1,18800	11
1,18867	11
1,18933	11
1,19000	11
1,19067	11
1,19133	11
1,19200	11
1,19267	11
1,19333	11
1,19400	11
1,19467	11
1,19533	11
1,19600	11
1,19667	11
1,19733	11
1,19800	11
1,19867	11
1,19933	11
1,20000	11
1,20067	11
1,20133	10
1,20200	10
1,20267	10
1,20333	10
1,20400	10
1,20467	10
1,20533	10
1,20600	10
1,20667	10
1,20733	10
1,20800	10
1,20867	10
1,20933	10
1,21000	10
1,21067	10
1,21133	10
1,21200	10
1,21267	10
1,21333	10
1,21400	10
1,21467	10
1,21533	10
1,21600	10
1,21667	10
1,21733	10
1,21800	10
1,21867	10
1,21933	10
1,22000	9
1,22067	9
1,22133	9
1,22200	9
1,22267	9
1,22333	9
1,22400	9
1,22467	9
1,22533	9
1,22600	9
1,22667	9
1,22733	9
1,22800	9
1,22867	9
1,22933	9
1,23000	9
1,23067	9
1,23133	9
1,23200	9
1,23267	9
1,23333	9
1,23400	9
1,23467	9
1,23533	9
1,23600	9
1,23667	8
1,23733	8
1,23800	8
1,23867	8
1,23933	8
1,24000	8
1,24067	8
1,24133	8
1,24200	8
1,24267	8
1,24333	8
1,24400	8
1,24467	8
1,24533	8
1,24600	8
1,24667	8
1,24733	8
1,24800	8
1,24867	8
1,24933	8
1,25000	8
1,25067	8
1,25133	8
1,25200	8
1,25267	8
1,25333	8
1,25400	8
1,25467	8
1,25533	8
1,25600	7
1,25667	7
1,25733	7
1,25800	7
1,25867	7
1,25933	7
1,26000	7
1,26067	7
1,26133	7
1,26200	7
1,26267	7
1,26333	7
1,26400	7
1,26467	7
1,26533	7
1,26600	7
1,26667	7
1,26733	7
1,26800	7
1,26867	7
1,26933	7
1,27000	7
1,27067	7
1,27133	7
1,27200	7
1,27267	7
1,27333	7
1,27400	7
1,27467	7
1,27533	7
1,27600	7
1,27667	7
1,27733	7
1,27800	7
1,27867	7
1,27933	7
1,28000	7
1,28067	7
1,28133	7
1,28200	7
1,28267	7
1,28333	7
1,28400	7
1,28467	7
1,28533	7
1,28600	7
1,28667	7
1,28733	7
1,28800	8
1,28867	8
1,28933	8
1,29000	8
1,29067	8
1,29133	8
1,29200	8
1,29267	8
1,29333	8
1,29400	9
1,29467	9
1,29533	9
1,29600	9
1,29667	9
1,29733	10
1,29800	10
1,29867	10
1,29933	10
1,30000	11
1,30067	11
1,30133	11
1,30200	12
1,30267	12
1,30333	12
1,30400	13
1,30467	13
1,30533	14
1,30600	14
1,30667	15
1,30733	15
1,30800	16
1,30867	16
1,30933	17
1,31000	17
1,31067	18
1,31133	19
1,31200	19
1,31267	20
1,31333	21
1,31400	22
1,31467	23
1,31533	23
1,31600	24
1,31667	25
1,31733	26
1,31800	27
1,31867	29
1,31933	30
1,32000	31
1,32067	32
1,32133	33
1,32200	35
1,32267	36
1,32333	38
1,32400	39
1,32467	41
1,32533	42
1,32600	44
1,32667	46
1,32733	48
1,32800	50
1,32867	52
1,32933	54
1,33000	56
1,33067	58
1,33133	60
1,33200	63
1,33267	65
1,33333	67
1,33400	70
1,33467	73
1,33533	75
1,33600	78
1,33667	81
1,33733	84
1,33800	87
1,33867	91
1,33933	94
1,34000	97
1,34067	101
1,34133	104
1,34200	108
1,34267	112
1,34333	116
1,34400	120
1,34467	124
1,34533	128
1,34600	133
1,34667	137
1,34733	142
1,34800	147
1,34867	152
1,34933	157
1,35000	162
1,35067	167
1,35133	173
1,35200	178
1,35267	184
1,35333	190
1,35400	196
1,35467	202
1,35533	208
1,35600	215
1,35667	221
1,35733	228
1,35800	235
1,35867	242
1,35933	249
1,36000	256
1,36067	264
1,36133	271
1,36200	279
1,36267	287
1,36333	295
1,36400	304
1,36467	312
1,36533	321
1,36600	330
1,36667	339
1,36733	348
1,36800	357
1,36867	367
1,36933	376
1,37000	386
1,37067	396
1,37133	406
1,37200	417
1,37267	427
1,37333	438
1,37400	449
1,37467	460
1,37533	471
1,37600	483
1,37667	495
1,37733	506
1,37800	518
1,37867	531
1,37933	543
1,38000	556
1,38067	569
1,38133	581
1,38200	595
1,38267	608
1,38333	622
1,38400	635
1,38467	649
1,38533	663
1,38600	678
1,38667	692
1,38733	707
1,38800	722
1,38867	737
1,38933	752
1,39000	767
1,39067	783
1,39133	799
1,39200	815
1,39267	831
1,39333	847
1,39400	863
1,39467	880
1,39533	897
1,39600	914
1,39667	931
1,39733	949
1,39800	966
1,39867	984
1,39933	1002
1,40000	1020
1,40067	1038
1,40133	1057
1,40200	1075
1,40267	1094
1,40333	1113
1,40400	1132
1,40467	1151
1,40533	1171
1,40600	1190
1,40667	1210
1,40733	1230
1,40800	1250
1,40867	1270
1,40933	1290
1,41000	1311
1,41067	1331
1,41133	1352
1,41200	1373
1,41267	1394
1,41333	1415
1,41400	1436
1,41467	1458
1,41533	1479
1,41600	1501
1,41667	1523
1,41733	1545
1,41800	1567
1,41867	1589
1,41933	1611
1,42000	1633
1,42067	1656
1,42133	1678
1,42200	1701
1,42267	1724
1,42333	1747
1,42400	1770
1,42467	1793
1,42533	1816
1,42600	1839
1,42667	1862
1,42733	1886
1,42800	1909
1,42867	1933
1,42933	1956
1,43000	1980
1,43067	2004
1,43133	2028
1,43200	2051
1,43267	2075
1,43333	2099
1,43400	2123
1,43467	2147
1,43533	2171
1,43600	2196
1,43667	2220
1,43733	2244
1,43800	2268
1,43867	2292
1,43933	2317
1,44000	2341
1,44067	2365
1,44133	2390
1,44200	2414
1,44267	2438
1,44333	2463
1,44400	2487
1,44467	2511
1,44533	2536
1,44600	2560
1,44667	2584
1,44733	2609
1,44800	2633
1,44867	2657
1,44933	2681
1,45000	2706
1,45067	2730
1,45133	2754
1,45200	2778
1,45267	2802
1,45333	2826
1,45400	2850
1,45467	2874
1,45533	2898
1,45600	2922
1,45667	2945
1,45733	2969
1,45800	2992
1,45867	3016
1,45933	3039
1,46000	3063
1,46067	3086
1,46133	3109
1,46200	3132
1,46267	3155
1,46333	3178
1,46400	3201
1,46467	3224
1,46533	3246
1,46600	3269
1,46667	3291
1,46733	3314
1,46800	3336
1,46867	3358
1,46933	3380
1,47000	3402
1,47067	3423
1,47133	3445
1,47200	3466
1,47267	3488
1,47333	3509
1,47400	3530
1,47467	3551
1,47533	3571
1,47600	3592
1,47667	3612
1,47733	3633
1,47800	3653
1,47867	3673
1,47933	3692
1,48000	3712
1,48067	3731
1,48133	3751
1,48200	3770
1,48267	3789
1,48333	3808
1,48400	3826
1,48467	3845
1,48533	3863
1,48600	3881
1,48667	3899
1,48733	3917
1,48800	3934
1,48867	3951
1,48933	3968
1,49000	3985
1,49067	4002
1,49133	4019
1,49200	4035
1,49267	4051
1,49333	4067
1,49400	4083
1,49467	4098
1,49533	4113
1,49600	4128
1,49667	4143
1,49733	4158
1,49800	4172
1,49867	4186
1,49933	4200
1,50000	4214
1,50067	4227
1,50133	4241
1,50200	4254
1,50267	4267
1,50333	4279
1,50400	4292
1,50467	4304
1,50533	4316
1,50600	4327
1,50667	4339
1,50733	4350
1,50800	4361
1,50867	4372
1,50933	4382
1,51000	4392
1,51067	4402
1,51133	4412
1,51200	4422
1,51267	4431
1,51333	4440
1,51400	4449
1,51467	4457
1,51533	4465
1,51600	4473
1,51667	4481
1,51733	4489
1,51800	4496
1,51867	4503
1,51933	4510
1,52000	4517
1,52067	4523
1,52133	4529
1,52200	4535
1,52267	4540
1,52333	4546
1,52400	4551
1,52467	4556
1,52533	4560
1,52600	4565
1,52667	4569
1,52733	4573
1,52800	4576
1,52867	4580
1,52933	4583
1,53000	4586
1,53067	4588
1,53133	4591
1,53200	4593
1,53267	4595
1,53333	4597
1,53400	4598
1,53467	4599
1,53533	4600
1,53600	4601
1,53667	4602
1,53733	4602
1,53800	4602
1,53867	4602
1,53933	4601
1,54000	4601
1,54067	4600
1,54133	4599
1,54200	4597
1,54267	4596
1,54333	4594
1,54400	4592
1,54467	4590
1,54533	4588
1,54600	4585
1,54667	4582
1,54733	4579
1,54800	4576
1,54867	4572
1,54933	4568
1,55000	4565
1,55067	4560
1,55133	4556
1,55200	4552
1,55267	4547
1,55333	4542
1,55400	4537
1,55467	4531
1,55533	4526
1,55600	4520
1,55667	4514
1,55733	4508
1,55800	4502
1,55867	4495
1,55933	4489
1,56000	4482
1,56067	4475
1,56133	4468
1,56200	4460
1,56267	4453
1,56333	4445
1,56400	4437
1,56467	4429
1,56533	4421
1,56600	4412
1,56667	4404
1,56733	4395
1,56800	4386
1,56867	4377
1,56933	4368
1,57000	4359
1,57067	4349
1,57133	4340
1,57200	4330
1,57267	4320
1,57333	4310
1,57400	4300
1,57467	4289
1,57533	4279
1,57600	4268
1,57667	4257
1,57733	4246
1,57800	4235
1,57867	4224
1,57933	4213
1,58000	4201
1,58067	4190
1,58133	4178
1,58200	4167
1,58267	4155
1,58333	4143
1,58400	4131
1,58467	4118
1,58533	4106
1,58600	4094
1,58667	4081
1,58733	4069
1,58800	4056
1,58867	4043
1,58933	4030
1,59000	4017
1,59067	4004
1,59133	3991
1,59200	3978
1,59267	3964
1,59333	3951
1,59400	3938
1,59467	3924
1,59533	3910
1,59600	3897
1,59667	3883
1,59733	3869
1,59800	3855
1,59867	3841
1,59933	3827
1,60000	3813
1,60067	3799
1,60133	3784
1,60200	3770
1,60267	3756
1,60333	3741
1,60400	3727
1,60467	3713
1,60533	3698
1,60600	3683
1,60667	3669
1,60733	3654
1,60800	3639
1,60867	3625
1,60933	3610
1,61000	3595
1,61067	3580
1,61133	3565
1,61200	3550
1,61267	3535
1,61333	3520
1,61400	3505
1,61467	3490
1,61533	3475
1,61600	3460
1,61667	3445
1,61733	3430
1,61800	3415
1,61867	3400
1,61933	3384
1,62000	3369
1,62067	3354
1,62133	3339
1,62200	3323
1,62267	3308
1,62333	3293
1,62400	3278
1,62467	3263
1,62533	3247
1,62600	3232
1,62667	3217
1,62733	3201
1,62800	3186
1,62867	3171
1,62933	3156
1,63000	3141
1,63067	3125
1,63133	3110
1,63200	3095
1,63267	3080
1,63333	3064
1,63400	3049
1,63467	3034
1,63533	3019
1,63600	3004
1,63667	2989
1,63733	2974
1,63800	2958
1,63867	2943
1,63933	2928
1,64000	2913
1,64067	2898
1,64133	2883
1,64200	2868
1,64267	2854
1,64333	2839
1,64400	2824
1,64467	2809
1,64533	2794
1,64600	2779
1,64667	2764
1,64733	2750
1,64800	2735
1,64867	2720
1,64933	2706
1,65000	2691
1,65067	2677
1,65133	2662
1,65200	2648
1,65267	2633
1,65333	2619
1,65400	2604
1,65467	2590
1,65533	2576
1,65600	2561
1,65667	2547
1,65733	2533
1,65800	2519
1,65867	2505
1,65933	2490
1,66000	2476
1,66067	2462
1,66133	2448
1,66200	2435
1,66267	2421
1,66333	2407
1,66400	2393
1,66467	2379
1,66533	2366
1,66600	2352
1,66667	2338
1,66733	2325
1,66800	2311
1,66867	2298
1,66933	2284
1,67000	2271
1,67067	2258
1,67133	2245
1,67200	2231
1,67267	2218
1,67333	2205
1,67400	2192
1,67467	2179
1,67533	2166
1,67600	2153
1,67667	2140
1,67733	2127
1,67800	2115
1,67867	2102
1,67933	2089
1,68000	2077
1,68067	2064
1,68133	2052
1,68200	2039
1,68267	2027
1,68333	2014
1,68400	2002
1,68467	1990
1,68533	1978
1,68600	1966
1,68667	1954
1,68733	1941
1,68800	1930
1,68867	1918
1,68933	1906
1,69000	1894
1,69067	1882
1,69133	1870
1,69200	1859
1,69267	1847
1,69333	1836
1,69400	1824
1,69467	1813
1,69533	1801
1,69600	1790
1,69667	1779
1,69733	1768
1,69800	1756
1,69867	1745
1,69933	1734
1,70000	1723
1,70067	1712
1,70133	1701
1,70200	1691
1,70267	1680
1,70333	1669
1,70400	1659
1,70467	1648
1,70533	1637
1,70600	1627
1,70667	1616
1,70733	1606
1,70800	1596
1,70867	1585
1,70933	1575
1,71000	1565
1,71067	1555
1,71133	1545
1,71200	1535
1,71267	1525
1,71333	1515
1,71400	1505
1,71467	1495
1,71533	1485
1,71600	1476
1,71667	1466
1,71733	1457
1,71800	1447
1,71867	1437
1,71933	1428
1,72000	1419
1,72067	1409
1,72133	1400
1,72200	1391
1,72267	1382
1,72333	1372
1,72400	1363
1,72467	1354
1,72533	1345
1,72600	1336
1,72667	1328
1,72733	1319
1,72800	1310
1,72867	1301
1,72933	1293
1,73000	1284
1,73067	1275
1,73133	1267
1,73200	1258
1,73267	1250
1,73333	1242
1,73400	1233
1,73467	1225
1,73533	1217
1,73600	1209
1,73667	1200
1,73733	1192
1,73800	1184
1,73867	1176
1,73933	1168
1,74000	1160
1,74067	1153
1,74133	1145
1,74200	1137
1,74267	1129
1,74333	1122
1,74400	1114
1,74467	1107
1,74533	1099
1,74600	1092
1,74667	1084
1,74733	1077
1,74800	1069
1,74867	1062
1,74933	1055
1,75000	1048
1,75067	1040
1,75133	1033
1,75200	1026
1,75267	1019
1,75333	1012
1,75400	1005
1,75467	998
1,75533	992
1,75600	985
1,75667	978
1,75733	971
1,75800	965
1,75867	958
1,75933	951
1,76000	945
1,76067	938
1,76133	932
1,76200	925
1,76267	919
1,76333	913
1,76400	906
1,76467	900
1,76533	894
1,76600	888
1,76667	881
1,76733	875
1,76800	869
1,76867	863
1,76933	857
1,77000	851
1,77067	845
1,77133	840
1,77200	834
1,77267	828
1,77333	822
1,77400	816
1,77467	811
1,77533	805
1,77600	799
1,77667	794
1,77733	788
1,77800	783
1,77867	777
1,77933	772
1,78000	766
1,78067	761
1,78133	756
1,78200	750
1,78267	745
1,78333	740
1,78400	735
1,78467	730
1,78533	724
1,78600	719
1,78667	714
1,78733	709
1,78800	704
1,78867	699
1,78933	694
1,79000	690
1,79067	685
1,79133	680
1,79200	675
1,79267	670
1,79333	666
1,79400	661
1,79467	656
1,79533	652
1,79600	647
1,79667	642
1,79733	638
1,79800	633
1,79867	629
1,79933	624
1,80000	620
1,80067	616
1,80133	611
1,80200	607
1,80267	603
1,80333	598
1,80400	594
1,80467	590
1,80533	586
1,80600	581
1,80667	577
1,80733	573
1,80800	569
1,80867	565
1,80933	561
1,81000	557
1,81067	553
1,81133	549
1,81200	545
1,81267	541
1,81333	538
1,81400	534
1,81467	530
1,81533	526
1,81600	522
1,81667	519
1,81733	515
1,81800	511
1,81867	508
1,81933	504
1,82000	500
1,82067	497
1,82133	493
1,82200	490
1,82267	486
1,82333	483
1,82400	479
1,82467	476
1,82533	472
1,82600	469
1,82667	466
1,82733	462
1,82800	459
1,82867	456
1,82933	452
1,83000	449
1,83067	446
1,83133	443
1,83200	439
1,83267	436
1,83333	433
1,83400	430
1,83467	427
1,83533	424
1,83600	421
1,83667	418
1,83733	415
1,83800	412
1,83867	409
1,83933	406
1,84000	403
1,84067	400
1,84133	397
1,84200	394
1,84267	391
1,84333	389
1,84400	386
1,84467	383
1,84533	380
1,84600	378
1,84667	375
1,84733	372
1,84800	369
1,84867	367
1,84933	364
1,85000	362
1,85067	359
1,85133	356
1,85200	354
1,85267	351
1,85333	349
1,85400	346
1,85467	344
1,85533	341
1,85600	339
1,85667	336
1,85733	334
1,85800	331
1,85867	329
1,85933	327
1,86000	324
1,86067	322
1,86133	319
1,86200	317
1,86267	315
1,86333	313
1,86400	310
1,86467	308
1,86533	306
1,86600	304
1,86667	301
1,86733	299
1,86800	297
1,86867	295
1,86933	293
1,87000	291
1,87067	289
1,87133	286
1,87200	284
1,87267	282
1,87333	280
1,87400	278
1,87467	276
1,87533	274
1,87600	272
1,87667	270
1,87733	268
1,87800	266
1,87867	264
1,87933	262
1,88000	261
1,88067	259
1,88133	257
1,88200	255
1,88267	253
1,88333	251
1,88400	249
1,88467	248
1,88533	246
1,88600	244
1,88667	242
1,88733	241
1,88800	239
1,88867	237
1,88933	235
1,89000	234
1,89067	232
1,89133	230
1,89200	229
1,89267	227
1,89333	225
1,89400	224
1,89467	222
1,89533	220
1,89600	219
1,89667	217
1,89733	216
1,89800	214
1,89867	213
1,89933	211
1,90000	210
1,90067	208
1,90133	207
1,90200	205
1,90267	204
1,90333	202
1,90400	201
1,90467	199
1,90533	198
1,90600	196
1,90667	195
1,90733	193
1,90800	192
1,90867	191
1,90933	189
1,91000	188
1,91067	187
1,91133	185
1,91200	184
1,91267	183
1,91333	181
1,91400	180
1,91467	179
1,91533	177
1,91600	176
1,91667	175
1,91733	173
1,91800	172
1,91867	171
1,91933	170
1,92000	168
1,92067	167
1,92133	166
1,92200	165
1,92267	164
1,92333	162
1,92400	161
1,92467	160
1,92533	159
1,92600	158
1,92667	157
1,92733	156
1,92800	154
1,92867	153
1,92933	152
1,93000	151
1,93067	150
1,93133	149
1,93200	148
1,93267	147
1,93333	146
1,93400	145
1,93467	144
1,93533	143
1,93600	142
1,93667	141
1,93733	140
1,93800	139
1,93867	138
1,93933	137
1,94000	136
1,94067	135
1,94133	134
1,94200	133
1,94267	132
1,94333	131
1,94400	130
1,94467	129
1,94533	128
1,94600	127
1,94667	126
1,94733	125
1,94800	124
1,94867	123
1,94933	123
1,95000	122
1,95067	121
1,95133	120
1,95200	119
1,95267	118
1,95333	117
1,95400	117
1,95467	116
1,95533	115
1,95600	114
1,95667	113
1,95733	112
1,95800	112
1,95867	111
1,95933	110
1,96000	109
1,96067	108
1,96133	108
1,96200	107
1,96267	106
1,96333	105
1,96400	105
1,96467	104
1,96533	103
1,96600	102
1,96667	102
1,96733	101
1,96800	100
1,96867	100
1,96933	99
1,97000	98
1,97067	97
1,97133	97
1,97200	96
1,97267	95
1,97333	95
1,97400	94
1,97467	93
1,97533	93
1,97600	92
1,97667	91
1,97733	91
1,97800	90
1,97867	90
1,97933	89
1,98000	88
1,98067	88
1,98133	87
1,98200	86
1,98267	86
1,98333	85
1,98400	85
1,98467	84
1,98533	83
1,98600	83
1,98667	82
1,98733	82
1,98800	81
1,98867	81
1,98933	80
1,99000	79
1,99067	79
1,99133	78
1,99200	78
1,99267	77
1,99333	77
1,99400	76
1,99467	76
1,99533	75
1,99600	75
1,99667	74
1,99733	74
1,99800	73
1,99867	73
1,99933	72
2,00000	72
2,00067	71
2,00133	71
2,00200	70
2,00267	70
2,00333	69
2,00400	69
2,00467	68
2,00533	68
2,00600	67
2,00667	67
2,00733	66
2,00800	66
2,00867	65
2,00933	65
2,01000	64
2,01067	64
2,01133	64
2,01200	63
2,01267	63
2,01333	62
2,01400	62
2,01467	61
2,01533	61
2,01600	61
2,01667	60
2,01733	60
2,01800	59
2,01867	59
2,01933	59
2,02000	58
2,02067	58
2,02133	57
2,02200	57
2,02267	57
2,02333	56
2,02400	56
2,02467	55
2,02533	55
2,02600	55
2,02667	54
2,02733	54
2,02800	53
2,02867	53
2,02933	53
2,03000	52
2,03067	52
2,03133	52
2,03200	51
2,03267	51
2,03333	51
2,03400	50
2,03467	50
2,03533	50
2,03600	49
2,03667	49
2,03733	49
2,03800	48
2,03867	48
2,03933	48
2,04000	47
2,04067	47
2,04133	47
2,04200	46
2,04267	46
2,04333	46
2,04400	45
2,04467	45
2,04533	45
2,04600	44
2,04667	44
2,04733	44
2,04800	43
2,04867	43
2,04933	43
2,05000	43
2,05067	42
2,05133	42
2,05200	42
2,05267	41
2,05333	41
2,05400	41
2,05467	41
2,05533	40
2,05600	40
2,05667	40
2,05733	40
2,05800	39
2,05867	39
2,05933	39
2,06000	39
2,06067	38
2,06133	38
2,06200	38
2,06267	37
2,06333	37
2,06400	37
2,06467	37
2,06533	37
2,06600	36
2,06667	36
2,06733	36
2,06800	36
2,06867	35
2,06933	35
2,07000	35
2,07067	35
2,07133	34
2,07200	34
2,07267	34
2,07333	34
2,07400	34
2,07467	33
2,07533	33
2,07600	33
2,07667	33
2,07733	32
2,07800	32
2,07867	32
2,07933	32
2,08000	32
2,08067	31
2,08133	31
2,08200	31
2,08267	31
2,08333	31
2,08400	31
2,08467	30
2,08533	30
2,08600	30
2,08667	30
2,08733	30
2,08800	29
2,08867	29
2,08933	29
2,09000	29
2,09067	29
2,09133	28
2,09200	28
2,09267	28
2,09333	28
2,09400	28
2,09467	28
2,09533	27
2,09600	27
2,09667	27
2,09733	27
2,09800	27
2,09867	26
2,09933	26
2,10000	26
2,10067	26
2,10133	26
2,10200	26
2,10267	25
2,10333	25
2,10400	25
2,10467	25
2,10533	25
2,10600	25
2,10667	24
2,10733	24
2,10800	24
2,10867	24
2,10933	24
2,11000	24
2,11067	24
2,11133	23
2,11200	23
2,11267	23
2,11333	23
2,11400	23
2,11467	23
2,11533	23
2,11600	22
2,11667	22
2,11733	22
2,11800	22
2,11867	22
2,11933	22
2,12000	22
2,12067	21
2,12133	21
2,12200	21
2,12267	21
2,12333	21
2,12400	21
2,12467	21
2,12533	21
2,12600	20
2,12667	20
2,12733	20
2,12800	20
2,12867	20
2,12933	20
2,13000	20
2,13067	20
2,13133	20
2,13200	19
2,13267	19
2,13333	19
2,13400	19
2,13467	19
2,13533	19
2,13600	19
2,13667	19
2,13733	19
2,13800	18
2,13867	18
2,13933	18
2,14000	18
2,14067	18
2,14133	18
2,14200	18
2,14267	18
2,14333	18
2,14400	18
2,14467	17
2,14533	17
2,14600	17
2,14667	17
2,14733	17
2,14800	17
2,14867	17
2,14933	17
2,15000	17
2,15067	16
2,15133	16
2,15200	16
2,15267	16
2,15333	16
2,15400	16
2,15467	16
2,15533	16
2,15600	16
2,15667	16
2,15733	15
2,15800	15
2,15867	15
2,15933	15
2,16000	15
2,16067	15
2,16133	15
2,16200	15
2,16267	15
2,16333	15
2,16400	15
2,16467	14
2,16533	14
2,16600	14
2,16667	14
2,16733	14
2,16800	14
2,16867	14
2,16933	14
2,17000	14
2,17067	14
2,17133	14
2,17200	14
2,17267	13
2,17333	13
2,17400	13
2,17467	13
2,17533	13
2,17600	13
2,17667	13
2,17733	13
2,17800	13
2,17867	13
2,17933	13
2,18000	13
2,18067	13
2,18133	13
2,18200	12
2,18267	12
2,18333	12
2,18400	12
2,18467	12
2,18533	12
2,18600	12
2,18667	12
2,18733	12
2,18800	12
2,18867	12
2,18933	12
2,19000	12
2,19067	12
2,19133	12
2,19200	12
2,19267	11
2,19333	11
2,19400	11
2,19467	11
2,19533	11
2,19600	11
2,19667	11
2,19733	11
2,19800	11
2,19867	11
2,19933	11
2,20000	11
2,20067	11
2,20133	11
2,20200	11
2,20267	11
2,20333	11
2,20400	11
2,20467	11
2,20533	11
2,20600	11
2,20667	10
2,20733	10
2,20800	10
2,20867	10
2,20933	10
2,21000	10
2,21067	10
2,21133	10
2,21200	10
2,21267	10
2,21333	10
2,21400	10
2,21467	10
2,21533	10
2,21600	10
2,21667	10
2,21733	10
2,21800	10
2,21867	10
2,21933	10
2,22000	10
2,22067	10
2,22133	10
2,22200	10
2,22267	10
2,22333	9
2,22400	9
2,22467	9
2,22533	9
2,22600	9
2,22667	9
2,22733	9
2,22800	9
2,22867	9
2,22933	9
2,23000	9
2,23067	9
2,23133	9
2,23200	9
2,23267	9
2,23333	9
2,23400	9
2,23467	9
2,23533	9
2,23600	9
2,23667	9
2,23733	9
2,23800	9
2,23867	9
2,23933	9
2,24000	9
2,24067	9
2,24133	9
2,24200	9
2,24267	8
2,24333	8
2,24400	8
2,24467	8
2,24533	8
2,24600	8
2,24667	8
2,24733	8
2,24800	8
2,24867	8
2,24933	8
2,25000	8
2,25067	8
2,25133	8
2,25200	8
2,25267	8
2,25333	8
2,25400	8
2,25467	8
2,25533	8
2,25600	8
2,25667	8
2,25733	8
2,25800	8
2,25867	8
2,25933	8
2,26000	8
2,26067	8
2,26133	8
2,26200	7
2,26267	7
2,26333	7
2,26400	7
2,26467	7
2,26533	7
2,26600	7
2,26667	7
2,26733	7
2,26800	7
2,26867	7
2,26933	7
2,27000	7
2,27067	7
2,27133	7
2,27200	7
2,27267	7
2,27333	7
2,27400	7
2,27467	7
2,27533	7
2,27600	7
2,27667	7
2,27733	7
2,27800	7
2,27867	7
2,27933	7
2,28000	7
2,28067	7
2,28133	7
2,28200	7
2,28267	7
2,28333	7
2,28400	7
2,28467	7
2,28533	7
2,28600	7
2,28667	6
2,28733	6
2,28800	6
2,28867	6
2,28933	6
2,29000	6
2,29067	6
2,29133	6
2,29200	6
2,29267	6
2,29333	6
2,29400	6
2,29467	6
2,29533	6
2,29600	6
2,29667	6
2,29733	6
2,29800	6
2,29867	6
2,29933	6
2,30000	6
2,30067	6
2,30133	6
2,30200	6
2,30267	6
2,30333	6
2,30400	6
2,30467	6
2,30533	6
2,30600	6
2,30667	6
2,30733	6
2,30800	6
2,30867	6
2,30933	6
2,31000	6
2,31067	6
2,31133	6
2,31200	6
2,31267	6
2,31333	6
2,31400	6
2,31467	5
2,31533	5
2,31600	5
2,31667	5
2,31733	5
2,31800	5
2,31867	5
2,31933	5
2,32000	5
2,32067	5
2,32133	5
2,32200	5
2,32267	5
2,32333	5
2,32400	5
2,32467	5
2,32533	5
2,32600	5
2,32667	5
2,32733	5
2,32800	5
2,32867	5
2,32933	5
2,33000	5
2,33067	5
2,33133	5
2,33200	5
2,33267	5
2,33333	5
2,33400	5
2,33467	5
2,33533	5
2,33600	5
2,33667	5
2,33733	5
2,33800	5
2,33867	5
2,33933	5
2,34000	5
2,34067	5
2,34133	5
2,34200	5
2,34267	5
2,34333	5
2,34400	5
2,34467	5
2,34533	5
2,34600	5
2,34667	4

[Chromatogram Additional (Ch1)]
Maximum	4602
Minimum	-2

