[Header]
Data File Name	D:\Praktikum\WS2020-2021\02122020\1-Propanol_80°.gcd
Output Date	02.12.2020
Output Time	16:40:47

[File Information]
Type	Data File
Generated	02.12.2020 15:17:31
Generated by	GCMS
Modified	02.12.2020 15:17:31
Modified by	GCMS

[Sample Information]
Operator Name	GCMS
Acquisition Date	02.12.2020 15:14:19
Type	Unknown
Level	1
Sample Name	1-Propanol_80°
Sample ID	1-Propanol_80°
ISTD Amount1	1
ISTD Amount2	1
ISTD Amount3	1
ISTD Amount4	1
ISTD Amount5	1
ISTD Amount6	1
ISTD Amount7	1
ISTD Amount8	1
ISTD Amount9	1
ISTD Amount10	1
ISTD Amount11	1
ISTD Amount12	1
ISTD Amount13	1
ISTD Amount14	1
ISTD Amount15	1
ISTD Amount16	1
Sample Amount	1
Dilution Factor	1
Vial#	1
Injection Volume	0
Injection Count	0
Bar Code	

[Original Files]
Data File	D:\Praktikum\WS2020-2021\02122020\1-Propanol_80°.gcd
Method File	D:\Praktikum\Alkohole GC-2014.gcm
Batch File	
Report Format File	D:\Praktikum\Praktikum.gcr

[File Comment]


[Configration]
Instrument Name	GC-2014
Instrument #	1
Line #	1

[Peak Table (Ch1)]
# of Peaks	2
Peak#	R.Time	I.Time	F.Time	Area	Height	A/H	Conc.	Mark	ID#	Name	k'	Plate #	Plate Ht.	Tailing	Resolution	Sep.Factor
1	0,652	0,463	1,242	2914	217	13,40	0,00000	   			0,000	62,205	0,000	1,901	0,000	0,000
2	2,440	1,974	3,136	103826	6162	16,85	0,00000	   			2,740	492,087	0,000	0,872	4,650	0,000

[Compound Results (Ch1)]
# of IDs	4
ID#	Name	R.Time	Area	Height	Conc.	Curve	3rd	2nd	1st	Constant
1	Luft	0,000	0	0	0,00000	Default					
2	Dreck	0,000	0	0	0,00000	Default					
3	Propanol	0,000	0	0	0,00000	Default					
4	Butanol	0,000	0	0	0,00000	Default					

[Group Results (Ch1)]
# of Groups	0

[Chromatogram (Ch1)]
Interval(msec)	40
# of Points	4735
Start Time(min)	0,001
End Time(min)	3,157
R.Time	Intensity
0,00050	-4
0,00117	-4
0,00183	-4
0,00250	-4
0,00317	-4
0,00383	-4
0,00450	-4
0,00517	-3
0,00583	-3
0,00650	-3
0,00717	-3
0,00783	-3
0,00850	-3
0,00917	-3
0,00983	-3
0,01050	-3
0,01117	-3
0,01183	-3
0,01250	-3
0,01317	-3
0,01383	-3
0,01450	-3
0,01517	-3
0,01583	-3
0,01650	-3
0,01717	-3
0,01783	-3
0,01850	-3
0,01917	-3
0,01983	-3
0,02050	-3
0,02117	-3
0,02183	-3
0,02250	-3
0,02317	-3
0,02383	-3
0,02450	-3
0,02517	-3
0,02583	-3
0,02650	-3
0,02717	-3
0,02783	-3
0,02850	-3
0,02917	-3
0,02983	-3
0,03050	-3
0,03117	-3
0,03183	-3
0,03250	-3
0,03317	-3
0,03383	-3
0,03450	-3
0,03517	-3
0,03583	-3
0,03650	-3
0,03717	-3
0,03783	-3
0,03850	-3
0,03917	-3
0,03983	-3
0,04050	-3
0,04117	-3
0,04183	-3
0,04250	-3
0,04317	-3
0,04383	-3
0,04450	-3
0,04517	-3
0,04583	-3
0,04650	-3
0,04717	-3
0,04783	-3
0,04850	-4
0,04917	-4
0,04983	-4
0,05050	-4
0,05117	-4
0,05183	-4
0,05250	-4
0,05317	-4
0,05383	-4
0,05450	-4
0,05517	-4
0,05583	-4
0,05650	-4
0,05717	-4
0,05783	-4
0,05850	-4
0,05917	-4
0,05983	-4
0,06050	-4
0,06117	-3
0,06183	-3
0,06250	-3
0,06317	-3
0,06383	-3
0,06450	-3
0,06517	-3
0,06583	-3
0,06650	-3
0,06717	-3
0,06783	-3
0,06850	-3
0,06917	-4
0,06983	-4
0,07050	-4
0,07117	-4
0,07183	-4
0,07250	-4
0,07317	-4
0,07383	-4
0,07450	-4
0,07517	-4
0,07583	-4
0,07650	-4
0,07717	-4
0,07783	-4
0,07850	-4
0,07917	-4
0,07983	-4
0,08050	-4
0,08117	-4
0,08183	-4
0,08250	-4
0,08317	-4
0,08383	-4
0,08450	-4
0,08517	-4
0,08583	-4
0,08650	-4
0,08717	-4
0,08783	-4
0,08850	-4
0,08917	-4
0,08983	-4
0,09050	-4
0,09117	-4
0,09183	-4
0,09250	-4
0,09317	-4
0,09383	-4
0,09450	-4
0,09517	-4
0,09583	-4
0,09650	-4
0,09717	-4
0,09783	-4
0,09850	-4
0,09917	-4
0,09983	-4
0,10050	-4
0,10117	-4
0,10183	-4
0,10250	-4
0,10317	-4
0,10383	-4
0,10450	-4
0,10517	-4
0,10583	-4
0,10650	-4
0,10717	-4
0,10783	-4
0,10850	-4
0,10917	-4
0,10983	-4
0,11050	-4
0,11117	-4
0,11183	-4
0,11250	-4
0,11317	-4
0,11383	-4
0,11450	-4
0,11517	-4
0,11583	-4
0,11650	-4
0,11717	-4
0,11783	-4
0,11850	-4
0,11917	-4
0,11983	-4
0,12050	-4
0,12117	-4
0,12183	-4
0,12250	-4
0,12317	-4
0,12383	-4
0,12450	-4
0,12517	-4
0,12583	-4
0,12650	-4
0,12717	-4
0,12783	-4
0,12850	-4
0,12917	-4
0,12983	-4
0,13050	-4
0,13117	-4
0,13183	-4
0,13250	-4
0,13317	-4
0,13383	-4
0,13450	-4
0,13517	-4
0,13583	-4
0,13650	-4
0,13717	-4
0,13783	-4
0,13850	-4
0,13917	-4
0,13983	-4
0,14050	-4
0,14117	-4
0,14183	-4
0,14250	-4
0,14317	-4
0,14383	-4
0,14450	-4
0,14517	-4
0,14583	-4
0,14650	-4
0,14717	-4
0,14783	-4
0,14850	-4
0,14917	-4
0,14983	-4
0,15050	-4
0,15117	-4
0,15183	-4
0,15250	-4
0,15317	-4
0,15383	-4
0,15450	-4
0,15517	-4
0,15583	-4
0,15650	-4
0,15717	-4
0,15783	-4
0,15850	-4
0,15917	-4
0,15983	-4
0,16050	-4
0,16117	-4
0,16183	-4
0,16250	-4
0,16317	-4
0,16383	-4
0,16450	-4
0,16517	-4
0,16583	-4
0,16650	-4
0,16717	-4
0,16783	-4
0,16850	-4
0,16917	-4
0,16983	-4
0,17050	-4
0,17117	-4
0,17183	-4
0,17250	-4
0,17317	-4
0,17383	-4
0,17450	-4
0,17517	-4
0,17583	-4
0,17650	-4
0,17717	-4
0,17783	-4
0,17850	-4
0,17917	-4
0,17983	-4
0,18050	-4
0,18117	-4
0,18183	-4
0,18250	-4
0,18317	-4
0,18383	-4
0,18450	-4
0,18517	-4
0,18583	-4
0,18650	-4
0,18717	-4
0,18783	-4
0,18850	-4
0,18917	-4
0,18983	-4
0,19050	-4
0,19117	-4
0,19183	-4
0,19250	-4
0,19317	-4
0,19383	-4
0,19450	-4
0,19517	-4
0,19583	-4
0,19650	-4
0,19717	-4
0,19783	-4
0,19850	-4
0,19917	-4
0,19983	-4
0,20050	-4
0,20117	-4
0,20183	-4
0,20250	-4
0,20317	-4
0,20383	-4
0,20450	-4
0,20517	-4
0,20583	-4
0,20650	-4
0,20717	-4
0,20783	-4
0,20850	-4
0,20917	-4
0,20983	-4
0,21050	-4
0,21117	-4
0,21183	-4
0,21250	-4
0,21317	-4
0,21383	-4
0,21450	-4
0,21517	-4
0,21583	-4
0,21650	-4
0,21717	-4
0,21783	-4
0,21850	-4
0,21917	-4
0,21983	-4
0,22050	-4
0,22117	-4
0,22183	-4
0,22250	-4
0,22317	-4
0,22383	-4
0,22450	-4
0,22517	-4
0,22583	-4
0,22650	-4
0,22717	-4
0,22783	-4
0,22850	-4
0,22917	-4
0,22983	-4
0,23050	-4
0,23117	-4
0,23183	-4
0,23250	-4
0,23317	-4
0,23383	-4
0,23450	-4
0,23517	-4
0,23583	-4
0,23650	-4
0,23717	-4
0,23783	-4
0,23850	-4
0,23917	-4
0,23983	-4
0,24050	-4
0,24117	-4
0,24183	-4
0,24250	-4
0,24317	-4
0,24383	-4
0,24450	-4
0,24517	-4
0,24583	-4
0,24650	-4
0,24717	-4
0,24783	-4
0,24850	-4
0,24917	-4
0,24983	-4
0,25050	-4
0,25117	-4
0,25183	-4
0,25250	-4
0,25317	-4
0,25383	-4
0,25450	-4
0,25517	-4
0,25583	-4
0,25650	-4
0,25717	-4
0,25783	-4
0,25850	-4
0,25917	-4
0,25983	-4
0,26050	-4
0,26117	-4
0,26183	-4
0,26250	-4
0,26317	-4
0,26383	-4
0,26450	-4
0,26517	-4
0,26583	-4
0,26650	-4
0,26717	-4
0,26783	-4
0,26850	-4
0,26917	-4
0,26983	-4
0,27050	-4
0,27117	-4
0,27183	-4
0,27250	-4
0,27317	-4
0,27383	-4
0,27450	-4
0,27517	-4
0,27583	-4
0,27650	-4
0,27717	-4
0,27783	-4
0,27850	-4
0,27917	-4
0,27983	-4
0,28050	-4
0,28117	-4
0,28183	-4
0,28250	-4
0,28317	-4
0,28383	-4
0,28450	-4
0,28517	-4
0,28583	-4
0,28650	-4
0,28717	-4
0,28783	-4
0,28850	-4
0,28917	-4
0,28983	-4
0,29050	-4
0,29117	-4
0,29183	-4
0,29250	-4
0,29317	-4
0,29383	-4
0,29450	-4
0,29517	-4
0,29583	-4
0,29650	-4
0,29717	-4
0,29783	-4
0,29850	-4
0,29917	-4
0,29983	-4
0,30050	-4
0,30117	-4
0,30183	-4
0,30250	-4
0,30317	-4
0,30383	-4
0,30450	-4
0,30517	-4
0,30583	-4
0,30650	-4
0,30717	-4
0,30783	-4
0,30850	-4
0,30917	-4
0,30983	-4
0,31050	-4
0,31117	-4
0,31183	-4
0,31250	-4
0,31317	-4
0,31383	-4
0,31450	-4
0,31517	-4
0,31583	-4
0,31650	-4
0,31717	-4
0,31783	-4
0,31850	-4
0,31917	-4
0,31983	-4
0,32050	-4
0,32117	-4
0,32183	-4
0,32250	-4
0,32317	-4
0,32383	-4
0,32450	-4
0,32517	-4
0,32583	-4
0,32650	-4
0,32717	-4
0,32783	-4
0,32850	-4
0,32917	-4
0,32983	-4
0,33050	-4
0,33117	-4
0,33183	-4
0,33250	-4
0,33317	-4
0,33383	-4
0,33450	-4
0,33517	-4
0,33583	-4
0,33650	-4
0,33717	-4
0,33783	-4
0,33850	-4
0,33917	-4
0,33983	-4
0,34050	-4
0,34117	-4
0,34183	-4
0,34250	-4
0,34317	-4
0,34383	-4
0,34450	-4
0,34517	-4
0,34583	-4
0,34650	-4
0,34717	-4
0,34783	-4
0,34850	-4
0,34917	-4
0,34983	-4
0,35050	-4
0,35117	-4
0,35183	-4
0,35250	-4
0,35317	-4
0,35383	-4
0,35450	-4
0,35517	-4
0,35583	-4
0,35650	-4
0,35717	-4
0,35783	-4
0,35850	-4
0,35917	-4
0,35983	-4
0,36050	-4
0,36117	-4
0,36183	-4
0,36250	-4
0,36317	-4
0,36383	-4
0,36450	-4
0,36517	-4
0,36583	-4
0,36650	-4
0,36717	-4
0,36783	-4
0,36850	-4
0,36917	-4
0,36983	-4
0,37050	-4
0,37117	-4
0,37183	-4
0,37250	-4
0,37317	-4
0,37383	-4
0,37450	-4
0,37517	-4
0,37583	-4
0,37650	-4
0,37717	-4
0,37783	-4
0,37850	-4
0,37917	-4
0,37983	-4
0,38050	-4
0,38117	-4
0,38183	-4
0,38250	-4
0,38317	-4
0,38383	-4
0,38450	-4
0,38517	-4
0,38583	-4
0,38650	-4
0,38717	-4
0,38783	-4
0,38850	-4
0,38917	-4
0,38983	-4
0,39050	-4
0,39117	-4
0,39183	-4
0,39250	-4
0,39317	-4
0,39383	-4
0,39450	-4
0,39517	-4
0,39583	-4
0,39650	-4
0,39717	-4
0,39783	-4
0,39850	-4
0,39917	-4
0,39983	-4
0,40050	-4
0,40117	-4
0,40183	-4
0,40250	-4
0,40317	-4
0,40383	-4
0,40450	-4
0,40517	-4
0,40583	-4
0,40650	-4
0,40717	-4
0,40783	-4
0,40850	-4
0,40917	-4
0,40983	-4
0,41050	-4
0,41117	-4
0,41183	-4
0,41250	-4
0,41317	-4
0,41383	-4
0,41450	-4
0,41517	-4
0,41583	-4
0,41650	-4
0,41717	-4
0,41783	-4
0,41850	-4
0,41917	-4
0,41983	-4
0,42050	-4
0,42117	-4
0,42183	-4
0,42250	-4
0,42317	-4
0,42383	-4
0,42450	-4
0,42517	-4
0,42583	-4
0,42650	-4
0,42717	-4
0,42783	-4
0,42850	-4
0,42917	-4
0,42983	-4
0,43050	-4
0,43117	-4
0,43183	-4
0,43250	-4
0,43317	-4
0,43383	-4
0,43450	-4
0,43517	-4
0,43583	-4
0,43650	-4
0,43717	-4
0,43783	-4
0,43850	-4
0,43917	-4
0,43983	-4
0,44050	-4
0,44117	-4
0,44183	-4
0,44250	-4
0,44317	-4
0,44383	-4
0,44450	-4
0,44517	-4
0,44583	-4
0,44650	-4
0,44717	-4
0,44783	-4
0,44850	-4
0,44917	-4
0,44983	-4
0,45050	-4
0,45117	-4
0,45183	-4
0,45250	-4
0,45317	-4
0,45383	-4
0,45450	-4
0,45517	-4
0,45583	-4
0,45650	-4
0,45717	-4
0,45783	-4
0,45850	-4
0,45917	-4
0,45983	-4
0,46050	-4
0,46117	-4
0,46183	-4
0,46250	-4
0,46317	-4
0,46383	-4
0,46450	-4
0,46517	-4
0,46583	-4
0,46650	-4
0,46717	-4
0,46783	-4
0,46850	-4
0,46917	-4
0,46983	-4
0,47050	-4
0,47117	-4
0,47183	-4
0,47250	-4
0,47317	-4
0,47383	-4
0,47450	-4
0,47517	-4
0,47583	-4
0,47650	-4
0,47717	-4
0,47783	-4
0,47850	-4
0,47917	-4
0,47983	-3
0,48050	-3
0,48117	-3
0,48183	-3
0,48250	-3
0,48317	-3
0,48383	-3
0,48450	-3
0,48517	-3
0,48583	-3
0,48650	-3
0,48717	-3
0,48783	-3
0,48850	-3
0,48917	-3
0,48983	-3
0,49050	-3
0,49117	-3
0,49183	-3
0,49250	-3
0,49317	-3
0,49383	-3
0,49450	-3
0,49517	-2
0,49583	-2
0,49650	-2
0,49717	-2
0,49783	-2
0,49850	-2
0,49917	-2
0,49983	-2
0,50050	-2
0,50117	-1
0,50183	-1
0,50250	-1
0,50317	-1
0,50383	-1
0,50450	-1
0,50517	-0
0,50583	-0
0,50650	0
0,50717	0
0,50783	1
0,50850	1
0,50917	1
0,50983	1
0,51050	2
0,51117	2
0,51183	2
0,51250	2
0,51317	3
0,51383	3
0,51450	3
0,51517	4
0,51583	4
0,51650	5
0,51717	5
0,51783	5
0,51850	6
0,51917	6
0,51983	7
0,52050	7
0,52117	8
0,52183	8
0,52250	9
0,52317	9
0,52383	10
0,52450	11
0,52517	11
0,52583	12
0,52650	12
0,52717	13
0,52783	14
0,52850	14
0,52917	15
0,52983	16
0,53050	17
0,53117	17
0,53183	18
0,53250	19
0,53317	20
0,53383	21
0,53450	21
0,53517	22
0,53583	23
0,53650	24
0,53717	25
0,53783	26
0,53850	27
0,53917	28
0,53983	29
0,54050	30
0,54117	31
0,54183	32
0,54250	33
0,54317	34
0,54383	35
0,54450	36
0,54517	38
0,54583	39
0,54650	40
0,54717	41
0,54783	42
0,54850	44
0,54917	45
0,54983	46
0,55050	47
0,55117	49
0,55183	50
0,55250	51
0,55317	52
0,55383	54
0,55450	55
0,55517	57
0,55583	58
0,55650	59
0,55717	61
0,55783	62
0,55850	64
0,55917	65
0,55983	66
0,56050	68
0,56117	69
0,56183	71
0,56250	72
0,56317	74
0,56383	75
0,56450	77
0,56517	78
0,56583	80
0,56650	81
0,56717	83
0,56783	85
0,56850	86
0,56917	88
0,56983	89
0,57050	91
0,57117	92
0,57183	94
0,57250	95
0,57317	97
0,57383	99
0,57450	100
0,57517	102
0,57583	103
0,57650	105
0,57717	107
0,57783	108
0,57850	110
0,57917	111
0,57983	113
0,58050	114
0,58117	116
0,58183	118
0,58250	119
0,58317	121
0,58383	122
0,58450	124
0,58517	125
0,58583	127
0,58650	129
0,58717	130
0,58783	132
0,58850	133
0,58917	135
0,58983	136
0,59050	138
0,59117	139
0,59183	141
0,59250	142
0,59317	144
0,59383	145
0,59450	147
0,59517	148
0,59583	150
0,59650	151
0,59717	152
0,59783	154
0,59850	155
0,59917	157
0,59983	158
0,60050	159
0,60117	161
0,60183	162
0,60250	163
0,60317	165
0,60383	166
0,60450	167
0,60517	169
0,60583	170
0,60650	171
0,60717	172
0,60783	174
0,60850	175
0,60917	176
0,60983	177
0,61050	178
0,61117	179
0,61183	181
0,61250	182
0,61317	183
0,61383	184
0,61450	185
0,61517	186
0,61583	187
0,61650	188
0,61717	189
0,61783	190
0,61850	191
0,61917	192
0,61983	193
0,62050	193
0,62117	194
0,62183	195
0,62250	196
0,62317	197
0,62383	198
0,62450	198
0,62517	199
0,62583	200
0,62650	201
0,62717	201
0,62783	202
0,62850	203
0,62917	203
0,62983	204
0,63050	205
0,63117	205
0,63183	206
0,63250	206
0,63317	207
0,63383	207
0,63450	208
0,63517	208
0,63583	209
0,63650	209
0,63717	210
0,63783	210
0,63850	210
0,63917	211
0,63983	211
0,64050	211
0,64117	212
0,64183	212
0,64250	212
0,64317	213
0,64383	213
0,64450	213
0,64517	213
0,64583	213
0,64650	214
0,64717	214
0,64783	214
0,64850	214
0,64917	214
0,64983	214
0,65050	214
0,65117	214
0,65183	214
0,65250	214
0,65317	214
0,65383	214
0,65450	214
0,65517	214
0,65583	214
0,65650	214
0,65717	214
0,65783	214
0,65850	213
0,65917	213
0,65983	213
0,66050	213
0,66117	213
0,66183	213
0,66250	212
0,66317	212
0,66383	212
0,66450	212
0,66517	211
0,66583	211
0,66650	211
0,66717	210
0,66783	210
0,66850	210
0,66917	209
0,66983	209
0,67050	209
0,67117	208
0,67183	208
0,67250	208
0,67317	207
0,67383	207
0,67450	206
0,67517	206
0,67583	205
0,67650	205
0,67717	204
0,67783	204
0,67850	203
0,67917	203
0,67983	202
0,68050	202
0,68117	201
0,68183	201
0,68250	200
0,68317	200
0,68383	199
0,68450	198
0,68517	198
0,68583	197
0,68650	197
0,68717	196
0,68783	195
0,68850	195
0,68917	194
0,68983	193
0,69050	193
0,69117	192
0,69183	192
0,69250	191
0,69317	190
0,69383	190
0,69450	189
0,69517	188
0,69583	187
0,69650	187
0,69717	186
0,69783	185
0,69850	185
0,69917	184
0,69983	183
0,70050	183
0,70117	182
0,70183	181
0,70250	180
0,70317	180
0,70383	179
0,70450	178
0,70517	177
0,70583	177
0,70650	176
0,70717	175
0,70783	175
0,70850	174
0,70917	173
0,70983	172
0,71050	171
0,71117	171
0,71183	170
0,71250	169
0,71317	168
0,71383	168
0,71450	167
0,71517	166
0,71583	165
0,71650	165
0,71717	164
0,71783	163
0,71850	162
0,71917	162
0,71983	161
0,72050	160
0,72117	159
0,72183	158
0,72250	158
0,72317	157
0,72383	156
0,72450	155
0,72517	155
0,72583	154
0,72650	153
0,72717	152
0,72783	151
0,72850	151
0,72917	150
0,72983	149
0,73050	148
0,73117	148
0,73183	147
0,73250	146
0,73317	145
0,73383	145
0,73450	144
0,73517	143
0,73583	142
0,73650	142
0,73717	141
0,73783	140
0,73850	139
0,73917	139
0,73983	138
0,74050	137
0,74117	136
0,74183	136
0,74250	135
0,74317	134
0,74383	133
0,74450	133
0,74517	132
0,74583	131
0,74650	131
0,74717	130
0,74783	129
0,74850	128
0,74917	128
0,74983	127
0,75050	126
0,75117	126
0,75183	125
0,75250	124
0,75317	123
0,75383	123
0,75450	122
0,75517	121
0,75583	121
0,75650	120
0,75717	119
0,75783	119
0,75850	118
0,75917	117
0,75983	117
0,76050	116
0,76117	115
0,76183	115
0,76250	114
0,76317	113
0,76383	113
0,76450	112
0,76517	111
0,76583	111
0,76650	110
0,76717	109
0,76783	109
0,76850	108
0,76917	108
0,76983	107
0,77050	106
0,77117	106
0,77183	105
0,77250	104
0,77317	104
0,77383	103
0,77450	103
0,77517	102
0,77583	101
0,77650	101
0,77717	100
0,77783	100
0,77850	99
0,77917	98
0,77983	98
0,78050	97
0,78117	97
0,78183	96
0,78250	95
0,78317	95
0,78383	94
0,78450	94
0,78517	93
0,78583	93
0,78650	92
0,78717	91
0,78783	91
0,78850	90
0,78917	90
0,78983	89
0,79050	89
0,79117	88
0,79183	88
0,79250	87
0,79317	87
0,79383	86
0,79450	85
0,79517	85
0,79583	84
0,79650	84
0,79717	83
0,79783	83
0,79850	82
0,79917	82
0,79983	81
0,80050	81
0,80117	80
0,80183	80
0,80250	79
0,80317	79
0,80383	78
0,80450	78
0,80517	77
0,80583	77
0,80650	76
0,80717	76
0,80783	75
0,80850	75
0,80917	75
0,80983	74
0,81050	74
0,81117	73
0,81183	73
0,81250	72
0,81317	72
0,81383	71
0,81450	71
0,81517	71
0,81583	70
0,81650	70
0,81717	69
0,81783	69
0,81850	68
0,81917	68
0,81983	67
0,82050	67
0,82117	67
0,82183	66
0,82250	66
0,82317	65
0,82383	65
0,82450	65
0,82517	64
0,82583	64
0,82650	63
0,82717	63
0,82783	63
0,82850	62
0,82917	62
0,82983	61
0,83050	61
0,83117	61
0,83183	60
0,83250	60
0,83317	60
0,83383	59
0,83450	59
0,83517	58
0,83583	58
0,83650	58
0,83717	57
0,83783	57
0,83850	57
0,83917	56
0,83983	56
0,84050	56
0,84117	55
0,84183	55
0,84250	54
0,84317	54
0,84383	54
0,84450	53
0,84517	53
0,84583	53
0,84650	52
0,84717	52
0,84783	52
0,84850	51
0,84917	51
0,84983	51
0,85050	50
0,85117	50
0,85183	50
0,85250	49
0,85317	49
0,85383	49
0,85450	48
0,85517	48
0,85583	48
0,85650	48
0,85717	47
0,85783	47
0,85850	47
0,85917	46
0,85983	46
0,86050	46
0,86117	45
0,86183	45
0,86250	45
0,86317	45
0,86383	44
0,86450	44
0,86517	44
0,86583	43
0,86650	43
0,86717	43
0,86783	43
0,86850	42
0,86917	42
0,86983	42
0,87050	41
0,87117	41
0,87183	41
0,87250	41
0,87317	40
0,87383	40
0,87450	40
0,87517	40
0,87583	39
0,87650	39
0,87717	39
0,87783	39
0,87850	38
0,87917	38
0,87983	38
0,88050	38
0,88117	37
0,88183	37
0,88250	37
0,88317	37
0,88383	36
0,88450	36
0,88517	36
0,88583	36
0,88650	36
0,88717	35
0,88783	35
0,88850	35
0,88917	35
0,88983	34
0,89050	34
0,89117	34
0,89183	34
0,89250	33
0,89317	33
0,89383	33
0,89450	33
0,89517	33
0,89583	32
0,89650	32
0,89717	32
0,89783	32
0,89850	32
0,89917	31
0,89983	31
0,90050	31
0,90117	31
0,90183	31
0,90250	30
0,90317	30
0,90383	30
0,90450	30
0,90517	30
0,90583	29
0,90650	29
0,90717	29
0,90783	29
0,90850	29
0,90917	28
0,90983	28
0,91050	28
0,91117	28
0,91183	28
0,91250	27
0,91317	27
0,91383	27
0,91450	27
0,91517	27
0,91583	27
0,91650	26
0,91717	26
0,91783	26
0,91850	26
0,91917	26
0,91983	25
0,92050	25
0,92117	25
0,92183	25
0,92250	25
0,92317	25
0,92383	24
0,92450	24
0,92517	24
0,92583	24
0,92650	24
0,92717	24
0,92783	24
0,92850	23
0,92917	23
0,92983	23
0,93050	23
0,93117	23
0,93183	23
0,93250	22
0,93317	22
0,93383	22
0,93450	22
0,93517	22
0,93583	22
0,93650	22
0,93717	21
0,93783	21
0,93850	21
0,93917	21
0,93983	21
0,94050	21
0,94117	20
0,94183	20
0,94250	20
0,94317	20
0,94383	20
0,94450	20
0,94517	20
0,94583	19
0,94650	19
0,94717	19
0,94783	19
0,94850	19
0,94917	19
0,94983	19
0,95050	19
0,95117	18
0,95183	18
0,95250	18
0,95317	18
0,95383	18
0,95450	18
0,95517	18
0,95583	18
0,95650	17
0,95717	17
0,95783	17
0,95850	17
0,95917	17
0,95983	17
0,96050	17
0,96117	17
0,96183	16
0,96250	16
0,96317	16
0,96383	16
0,96450	16
0,96517	16
0,96583	16
0,96650	16
0,96717	16
0,96783	15
0,96850	15
0,96917	15
0,96983	15
0,97050	15
0,97117	15
0,97183	15
0,97250	15
0,97317	15
0,97383	15
0,97450	14
0,97517	14
0,97583	14
0,97650	14
0,97717	14
0,97783	14
0,97850	14
0,97917	14
0,97983	14
0,98050	14
0,98117	13
0,98183	13
0,98250	13
0,98317	13
0,98383	13
0,98450	13
0,98517	13
0,98583	13
0,98650	13
0,98717	13
0,98783	12
0,98850	12
0,98917	12
0,98983	12
0,99050	12
0,99117	12
0,99183	12
0,99250	12
0,99317	12
0,99383	12
0,99450	12
0,99517	11
0,99583	11
0,99650	11
0,99717	11
0,99783	11
0,99850	11
0,99917	11
0,99983	11
1,00050	11
1,00117	11
1,00183	11
1,00250	10
1,00317	10
1,00383	10
1,00450	10
1,00517	10
1,00583	10
1,00650	10
1,00717	10
1,00783	10
1,00850	10
1,00917	10
1,00983	10
1,01050	9
1,01117	9
1,01183	9
1,01250	9
1,01317	9
1,01383	9
1,01450	9
1,01517	9
1,01583	9
1,01650	9
1,01717	9
1,01783	9
1,01850	8
1,01917	8
1,01983	8
1,02050	8
1,02117	8
1,02183	8
1,02250	8
1,02317	8
1,02383	8
1,02450	8
1,02517	8
1,02583	8
1,02650	8
1,02717	8
1,02783	8
1,02850	7
1,02917	7
1,02983	7
1,03050	7
1,03117	7
1,03183	7
1,03250	7
1,03317	7
1,03383	7
1,03450	7
1,03517	7
1,03583	7
1,03650	7
1,03717	7
1,03783	7
1,03850	7
1,03917	7
1,03983	6
1,04050	6
1,04117	6
1,04183	6
1,04250	6
1,04317	6
1,04383	6
1,04450	6
1,04517	6
1,04583	6
1,04650	6
1,04717	6
1,04783	6
1,04850	6
1,04917	6
1,04983	6
1,05050	6
1,05117	5
1,05183	5
1,05250	5
1,05317	5
1,05383	5
1,05450	5
1,05517	5
1,05583	5
1,05650	5
1,05717	5
1,05783	5
1,05850	5
1,05917	5
1,05983	5
1,06050	5
1,06117	5
1,06183	5
1,06250	5
1,06317	5
1,06383	5
1,06450	4
1,06517	4
1,06583	4
1,06650	4
1,06717	4
1,06783	4
1,06850	4
1,06917	4
1,06983	4
1,07050	4
1,07117	4
1,07183	4
1,07250	4
1,07317	4
1,07383	4
1,07450	4
1,07517	4
1,07583	4
1,07650	4
1,07717	4
1,07783	4
1,07850	4
1,07917	4
1,07983	4
1,08050	4
1,08117	4
1,08183	4
1,08250	4
1,08317	3
1,08383	3
1,08450	3
1,08517	3
1,08583	3
1,08650	3
1,08717	3
1,08783	3
1,08850	3
1,08917	3
1,08983	3
1,09050	3
1,09117	3
1,09183	3
1,09250	3
1,09317	3
1,09383	3
1,09450	3
1,09517	3
1,09583	3
1,09650	3
1,09717	3
1,09783	3
1,09850	3
1,09917	3
1,09983	3
1,10050	3
1,10117	2
1,10183	2
1,10250	2
1,10317	2
1,10383	2
1,10450	2
1,10517	2
1,10583	2
1,10650	2
1,10717	2
1,10783	2
1,10850	2
1,10917	2
1,10983	2
1,11050	2
1,11117	2
1,11183	2
1,11250	2
1,11317	2
1,11383	2
1,11450	2
1,11517	2
1,11583	2
1,11650	2
1,11717	2
1,11783	2
1,11850	1
1,11917	1
1,11983	1
1,12050	1
1,12117	1
1,12183	1
1,12250	1
1,12317	1
1,12383	1
1,12450	1
1,12517	1
1,12583	1
1,12650	1
1,12717	1
1,12783	1
1,12850	1
1,12917	1
1,12983	1
1,13050	1
1,13117	1
1,13183	1
1,13250	1
1,13317	1
1,13383	1
1,13450	1
1,13517	1
1,13583	1
1,13650	1
1,13717	1
1,13783	1
1,13850	1
1,13917	1
1,13983	0
1,14050	0
1,14117	0
1,14183	0
1,14250	0
1,14317	0
1,14383	0
1,14450	0
1,14517	0
1,14583	0
1,14650	0
1,14717	0
1,14783	0
1,14850	0
1,14917	0
1,14983	0
1,15050	0
1,15117	0
1,15183	0
1,15250	0
1,15317	0
1,15383	0
1,15450	0
1,15517	0
1,15583	0
1,15650	0
1,15717	0
1,15783	0
1,15850	0
1,15917	-0
1,15983	-0
1,16050	-0
1,16117	-0
1,16183	-0
1,16250	-0
1,16317	-0
1,16383	-0
1,16450	-0
1,16517	-0
1,16583	-0
1,16650	-0
1,16717	-0
1,16783	-0
1,16850	-0
1,16917	-1
1,16983	-1
1,17050	-1
1,17117	-1
1,17183	-1
1,17250	-1
1,17317	-1
1,17383	-1
1,17450	-1
1,17517	-1
1,17583	-1
1,17650	-1
1,17717	-1
1,17783	-1
1,17850	-1
1,17917	-1
1,17983	-1
1,18050	-1
1,18117	-1
1,18183	-1
1,18250	-1
1,18317	-1
1,18383	-1
1,18450	-1
1,18517	-1
1,18583	-1
1,18650	-1
1,18717	-1
1,18783	-1
1,18850	-1
1,18917	-1
1,18983	-1
1,19050	-1
1,19117	-1
1,19183	-1
1,19250	-1
1,19317	-1
1,19383	-1
1,19450	-1
1,19517	-1
1,19583	-1
1,19650	-2
1,19717	-2
1,19783	-2
1,19850	-2
1,19917	-2
1,19983	-2
1,20050	-2
1,20117	-2
1,20183	-2
1,20250	-2
1,20317	-2
1,20383	-2
1,20450	-2
1,20517	-2
1,20583	-2
1,20650	-2
1,20717	-2
1,20783	-2
1,20850	-2
1,20917	-2
1,20983	-2
1,21050	-2
1,21117	-2
1,21183	-2
1,21250	-2
1,21317	-2
1,21383	-2
1,21450	-2
1,21517	-2
1,21583	-2
1,21650	-2
1,21717	-2
1,21783	-2
1,21850	-2
1,21917	-2
1,21983	-2
1,22050	-2
1,22117	-2
1,22183	-2
1,22250	-2
1,22317	-2
1,22383	-2
1,22450	-2
1,22517	-2
1,22583	-2
1,22650	-2
1,22717	-2
1,22783	-2
1,22850	-2
1,22917	-2
1,22983	-2
1,23050	-2
1,23117	-2
1,23183	-2
1,23250	-2
1,23317	-2
1,23383	-2
1,23450	-2
1,23517	-2
1,23583	-3
1,23650	-3
1,23717	-3
1,23783	-3
1,23850	-3
1,23917	-3
1,23983	-3
1,24050	-3
1,24117	-3
1,24183	-3
1,24250	-3
1,24317	-3
1,24383	-3
1,24450	-3
1,24517	-3
1,24583	-3
1,24650	-3
1,24717	-3
1,24783	-3
1,24850	-3
1,24917	-3
1,24983	-3
1,25050	-3
1,25117	-3
1,25183	-3
1,25250	-2
1,25317	-2
1,25383	-2
1,25450	-2
1,25517	-2
1,25583	-2
1,25650	-2
1,25717	-3
1,25783	-3
1,25850	-3
1,25917	-3
1,25983	-3
1,26050	-3
1,26117	-3
1,26183	-3
1,26250	-3
1,26317	-3
1,26383	-3
1,26450	-3
1,26517	-3
1,26583	-3
1,26650	-3
1,26717	-3
1,26783	-3
1,26850	-3
1,26917	-3
1,26983	-3
1,27050	-3
1,27117	-3
1,27183	-3
1,27250	-3
1,27317	-3
1,27383	-3
1,27450	-3
1,27517	-3
1,27583	-3
1,27650	-3
1,27717	-3
1,27783	-3
1,27850	-3
1,27917	-3
1,27983	-3
1,28050	-3
1,28117	-3
1,28183	-3
1,28250	-3
1,28317	-3
1,28383	-3
1,28450	-3
1,28517	-3
1,28583	-3
1,28650	-3
1,28717	-3
1,28783	-3
1,28850	-3
1,28917	-3
1,28983	-3
1,29050	-3
1,29117	-3
1,29183	-3
1,29250	-3
1,29317	-3
1,29383	-3
1,29450	-3
1,29517	-3
1,29583	-3
1,29650	-3
1,29717	-3
1,29783	-3
1,29850	-3
1,29917	-3
1,29983	-3
1,30050	-3
1,30117	-3
1,30183	-3
1,30250	-3
1,30317	-3
1,30383	-3
1,30450	-3
1,30517	-3
1,30583	-3
1,30650	-3
1,30717	-3
1,30783	-3
1,30850	-3
1,30917	-3
1,30983	-3
1,31050	-3
1,31117	-3
1,31183	-3
1,31250	-3
1,31317	-3
1,31383	-3
1,31450	-3
1,31517	-3
1,31583	-3
1,31650	-3
1,31717	-3
1,31783	-3
1,31850	-3
1,31917	-3
1,31983	-3
1,32050	-3
1,32117	-3
1,32183	-3
1,32250	-3
1,32317	-3
1,32383	-3
1,32450	-3
1,32517	-3
1,32583	-3
1,32650	-3
1,32717	-3
1,32783	-3
1,32850	-3
1,32917	-3
1,32983	-3
1,33050	-3
1,33117	-3
1,33183	-3
1,33250	-3
1,33317	-3
1,33383	-3
1,33450	-3
1,33517	-3
1,33583	-3
1,33650	-3
1,33717	-3
1,33783	-3
1,33850	-3
1,33917	-3
1,33983	-3
1,34050	-3
1,34117	-3
1,34183	-3
1,34250	-3
1,34317	-3
1,34383	-3
1,34450	-3
1,34517	-3
1,34583	-3
1,34650	-3
1,34717	-3
1,34783	-3
1,34850	-3
1,34917	-3
1,34983	-3
1,35050	-3
1,35117	-3
1,35183	-3
1,35250	-2
1,35317	-2
1,35383	-2
1,35450	-2
1,35517	-2
1,35583	-2
1,35650	-2
1,35717	-2
1,35783	-2
1,35850	-2
1,35917	-2
1,35983	-2
1,36050	-2
1,36117	-2
1,36183	-2
1,36250	-2
1,36317	-2
1,36383	-2
1,36450	-2
1,36517	-2
1,36583	-2
1,36650	-2
1,36717	-1
1,36783	-1
1,36850	-1
1,36917	-1
1,36983	-1
1,37050	-1
1,37117	-1
1,37183	-1
1,37250	-1
1,37317	-1
1,37383	-1
1,37450	-1
1,37517	-1
1,37583	-1
1,37650	-0
1,37717	-0
1,37783	-0
1,37850	-0
1,37917	-0
1,37983	0
1,38050	0
1,38117	0
1,38183	0
1,38250	0
1,38317	0
1,38383	1
1,38450	1
1,38517	1
1,38583	1
1,38650	1
1,38717	1
1,38783	1
1,38850	1
1,38917	1
1,38983	1
1,39050	2
1,39117	2
1,39183	2
1,39250	2
1,39317	2
1,39383	2
1,39450	2
1,39517	2
1,39583	2
1,39650	3
1,39717	3
1,39783	3
1,39850	3
1,39917	3
1,39983	3
1,40050	3
1,40117	3
1,40183	4
1,40250	4
1,40317	4
1,40383	4
1,40450	4
1,40517	4
1,40583	4
1,40650	4
1,40717	5
1,40783	5
1,40850	5
1,40917	5
1,40983	5
1,41050	5
1,41117	5
1,41183	6
1,41250	6
1,41317	6
1,41383	6
1,41450	6
1,41517	6
1,41583	6
1,41650	7
1,41717	7
1,41783	7
1,41850	7
1,41917	7
1,41983	7
1,42050	7
1,42117	8
1,42183	8
1,42250	8
1,42317	8
1,42383	8
1,42450	8
1,42517	8
1,42583	9
1,42650	9
1,42717	9
1,42783	9
1,42850	9
1,42917	9
1,42983	9
1,43050	10
1,43117	10
1,43183	10
1,43250	10
1,43317	10
1,43383	10
1,43450	10
1,43517	10
1,43583	11
1,43650	11
1,43717	11
1,43783	11
1,43850	11
1,43917	11
1,43983	11
1,44050	12
1,44117	12
1,44183	12
1,44250	12
1,44317	12
1,44383	12
1,44450	12
1,44517	12
1,44583	13
1,44650	13
1,44717	13
1,44783	13
1,44850	13
1,44917	13
1,44983	13
1,45050	13
1,45117	14
1,45183	14
1,45250	14
1,45317	14
1,45383	14
1,45450	14
1,45517	14
1,45583	14
1,45650	14
1,45717	15
1,45783	15
1,45850	15
1,45917	15
1,45983	15
1,46050	15
1,46117	15
1,46183	15
1,46250	15
1,46317	15
1,46383	15
1,46450	16
1,46517	16
1,46583	16
1,46650	16
1,46717	16
1,46783	16
1,46850	16
1,46917	16
1,46983	16
1,47050	16
1,47117	16
1,47183	16
1,47250	16
1,47317	16
1,47383	17
1,47450	17
1,47517	17
1,47583	17
1,47650	17
1,47717	17
1,47783	17
1,47850	17
1,47917	17
1,47983	17
1,48050	17
1,48117	17
1,48183	17
1,48250	17
1,48317	17
1,48383	17
1,48450	17
1,48517	17
1,48583	17
1,48650	18
1,48717	18
1,48783	18
1,48850	18
1,48917	18
1,48983	18
1,49050	18
1,49117	18
1,49183	18
1,49250	18
1,49317	18
1,49383	18
1,49450	18
1,49517	18
1,49583	18
1,49650	18
1,49717	18
1,49783	18
1,49850	18
1,49917	18
1,49983	18
1,50050	18
1,50117	18
1,50183	18
1,50250	18
1,50317	18
1,50383	18
1,50450	18
1,50517	18
1,50583	18
1,50650	18
1,50717	18
1,50783	18
1,50850	18
1,50917	18
1,50983	18
1,51050	18
1,51117	18
1,51183	18
1,51250	18
1,51317	18
1,51383	18
1,51450	18
1,51517	18
1,51583	18
1,51650	18
1,51717	18
1,51783	18
1,51850	18
1,51917	18
1,51983	18
1,52050	18
1,52117	18
1,52183	18
1,52250	18
1,52317	18
1,52383	18
1,52450	18
1,52517	18
1,52583	18
1,52650	18
1,52717	18
1,52783	18
1,52850	18
1,52917	18
1,52983	18
1,53050	18
1,53117	18
1,53183	18
1,53250	18
1,53317	17
1,53383	17
1,53450	17
1,53517	17
1,53583	17
1,53650	17
1,53717	17
1,53783	17
1,53850	17
1,53917	17
1,53983	17
1,54050	17
1,54117	17
1,54183	17
1,54250	17
1,54317	17
1,54383	17
1,54450	17
1,54517	17
1,54583	17
1,54650	17
1,54717	17
1,54783	17
1,54850	17
1,54917	17
1,54983	16
1,55050	16
1,55117	16
1,55183	16
1,55250	16
1,55317	16
1,55383	16
1,55450	16
1,55517	16
1,55583	16
1,55650	16
1,55717	16
1,55783	16
1,55850	16
1,55917	16
1,55983	16
1,56050	16
1,56117	15
1,56183	15
1,56250	15
1,56317	15
1,56383	15
1,56450	15
1,56517	15
1,56583	15
1,56650	15
1,56717	15
1,56783	15
1,56850	15
1,56917	15
1,56983	15
1,57050	15
1,57117	14
1,57183	14
1,57250	14
1,57317	14
1,57383	14
1,57450	14
1,57517	14
1,57583	14
1,57650	14
1,57717	14
1,57783	14
1,57850	14
1,57917	14
1,57983	14
1,58050	14
1,58117	13
1,58183	13
1,58250	13
1,58317	13
1,58383	13
1,58450	13
1,58517	13
1,58583	13
1,58650	13
1,58717	13
1,58783	13
1,58850	13
1,58917	13
1,58983	13
1,59050	13
1,59117	12
1,59183	12
1,59250	12
1,59317	12
1,59383	12
1,59450	12
1,59517	12
1,59583	12
1,59650	12
1,59717	12
1,59783	12
1,59850	12
1,59917	12
1,59983	12
1,60050	12
1,60117	12
1,60183	11
1,60250	11
1,60317	11
1,60383	11
1,60450	11
1,60517	11
1,60583	11
1,60650	11
1,60717	11
1,60783	11
1,60850	11
1,60917	11
1,60983	11
1,61050	11
1,61117	11
1,61183	11
1,61250	11
1,61317	10
1,61383	10
1,61450	10
1,61517	10
1,61583	10
1,61650	10
1,61717	10
1,61783	10
1,61850	10
1,61917	10
1,61983	10
1,62050	10
1,62117	10
1,62183	10
1,62250	10
1,62317	9
1,62383	9
1,62450	9
1,62517	9
1,62583	9
1,62650	9
1,62717	9
1,62783	9
1,62850	9
1,62917	9
1,62983	9
1,63050	9
1,63117	9
1,63183	9
1,63250	9
1,63317	8
1,63383	8
1,63450	8
1,63517	8
1,63583	8
1,63650	8
1,63717	8
1,63783	8
1,63850	8
1,63917	8
1,63983	8
1,64050	8
1,64117	8
1,64183	8
1,64250	8
1,64317	8
1,64383	8
1,64450	8
1,64517	8
1,64583	7
1,64650	7
1,64717	7
1,64783	7
1,64850	7
1,64917	7
1,64983	7
1,65050	7
1,65117	7
1,65183	7
1,65250	7
1,65317	7
1,65383	7
1,65450	7
1,65517	7
1,65583	7
1,65650	7
1,65717	7
1,65783	7
1,65850	7
1,65917	6
1,65983	6
1,66050	6
1,66117	6
1,66183	6
1,66250	6
1,66317	6
1,66383	6
1,66450	6
1,66517	6
1,66583	6
1,66650	6
1,66717	6
1,66783	6
1,66850	6
1,66917	6
1,66983	6
1,67050	6
1,67117	6
1,67183	6
1,67250	6
1,67317	5
1,67383	5
1,67450	5
1,67517	5
1,67583	5
1,67650	5
1,67717	5
1,67783	5
1,67850	5
1,67917	5
1,67983	5
1,68050	5
1,68117	5
1,68183	5
1,68250	5
1,68317	5
1,68383	5
1,68450	4
1,68517	4
1,68583	4
1,68650	4
1,68717	4
1,68783	4
1,68850	4
1,68917	4
1,68983	4
1,69050	4
1,69117	4
1,69183	4
1,69250	4
1,69317	4
1,69383	4
1,69450	4
1,69517	4
1,69583	4
1,69650	4
1,69717	4
1,69783	4
1,69850	4
1,69917	4
1,69983	3
1,70050	3
1,70117	3
1,70183	3
1,70250	3
1,70317	3
1,70383	3
1,70450	3
1,70517	3
1,70583	3
1,70650	3
1,70717	3
1,70783	3
1,70850	3
1,70917	3
1,70983	3
1,71050	3
1,71117	3
1,71183	3
1,71250	3
1,71317	3
1,71383	3
1,71450	3
1,71517	3
1,71583	3
1,71650	3
1,71717	3
1,71783	3
1,71850	2
1,71917	2
1,71983	2
1,72050	2
1,72117	2
1,72183	2
1,72250	2
1,72317	2
1,72383	2
1,72450	2
1,72517	2
1,72583	2
1,72650	2
1,72717	2
1,72783	2
1,72850	2
1,72917	2
1,72983	2
1,73050	2
1,73117	2
1,73183	2
1,73250	2
1,73317	2
1,73383	2
1,73450	2
1,73517	1
1,73583	1
1,73650	1
1,73717	1
1,73783	1
1,73850	1
1,73917	1
1,73983	1
1,74050	1
1,74117	1
1,74183	1
1,74250	1
1,74317	1
1,74383	1
1,74450	1
1,74517	1
1,74583	1
1,74650	1
1,74717	1
1,74783	1
1,74850	1
1,74917	1
1,74983	1
1,75050	1
1,75117	1
1,75183	1
1,75250	1
1,75317	1
1,75383	1
1,75450	1
1,75517	1
1,75583	1
1,75650	1
1,75717	1
1,75783	1
1,75850	1
1,75917	1
1,75983	0
1,76050	0
1,76117	0
1,76183	0
1,76250	0
1,76317	0
1,76383	0
1,76450	0
1,76517	0
1,76583	0
1,76650	0
1,76717	0
1,76783	0
1,76850	0
1,76917	0
1,76983	0
1,77050	0
1,77117	0
1,77183	0
1,77250	0
1,77317	0
1,77383	0
1,77450	0
1,77517	0
1,77583	0
1,77650	0
1,77717	0
1,77783	-0
1,77850	-0
1,77917	-0
1,77983	-0
1,78050	-0
1,78117	-0
1,78183	-0
1,78250	-0
1,78317	-0
1,78383	-0
1,78450	-0
1,78517	-0
1,78583	-0
1,78650	-0
1,78717	-0
1,78783	-0
1,78850	-1
1,78917	-1
1,78983	-1
1,79050	-1
1,79117	-1
1,79183	-1
1,79250	-1
1,79317	-1
1,79383	-1
1,79450	-1
1,79517	-1
1,79583	-1
1,79650	-1
1,79717	-1
1,79783	-1
1,79850	-1
1,79917	-1
1,79983	-1
1,80050	-1
1,80117	-1
1,80183	-1
1,80250	-1
1,80317	-1
1,80383	-1
1,80450	-1
1,80517	-1
1,80583	-1
1,80650	-1
1,80717	-1
1,80783	-1
1,80850	-1
1,80917	-1
1,80983	-1
1,81050	-1
1,81117	-1
1,81183	-1
1,81250	-1
1,81317	-1
1,81383	-1
1,81450	-1
1,81517	-1
1,81583	-1
1,81650	-1
1,81717	-1
1,81783	-1
1,81850	-1
1,81917	-1
1,81983	-1
1,82050	-1
1,82117	-2
1,82183	-2
1,82250	-2
1,82317	-2
1,82383	-2
1,82450	-2
1,82517	-2
1,82583	-2
1,82650	-2
1,82717	-2
1,82783	-2
1,82850	-2
1,82917	-2
1,82983	-2
1,83050	-2
1,83117	-2
1,83183	-2
1,83250	-2
1,83317	-2
1,83383	-2
1,83450	-2
1,83517	-2
1,83583	-2
1,83650	-2
1,83717	-2
1,83783	-2
1,83850	-2
1,83917	-2
1,83983	-2
1,84050	-2
1,84117	-2
1,84183	-2
1,84250	-2
1,84317	-2
1,84383	-2
1,84450	-2
1,84517	-2
1,84583	-2
1,84650	-2
1,84717	-2
1,84783	-2
1,84850	-2
1,84917	-2
1,84983	-2
1,85050	-2
1,85117	-2
1,85183	-2
1,85250	-2
1,85317	-2
1,85383	-2
1,85450	-2
1,85517	-2
1,85583	-2
1,85650	-2
1,85717	-2
1,85783	-2
1,85850	-2
1,85917	-2
1,85983	-2
1,86050	-2
1,86117	-2
1,86183	-2
1,86250	-2
1,86317	-2
1,86383	-2
1,86450	-2
1,86517	-2
1,86583	-2
1,86650	-2
1,86717	-2
1,86783	-2
1,86850	-2
1,86917	-2
1,86983	-2
1,87050	-2
1,87117	-2
1,87183	-2
1,87250	-2
1,87317	-3
1,87383	-3
1,87450	-3
1,87517	-3
1,87583	-3
1,87650	-3
1,87717	-3
1,87783	-3
1,87850	-3
1,87917	-3
1,87983	-3
1,88050	-3
1,88117	-3
1,88183	-3
1,88250	-3
1,88317	-3
1,88383	-3
1,88450	-3
1,88517	-3
1,88583	-3
1,88650	-3
1,88717	-3
1,88783	-3
1,88850	-3
1,88917	-3
1,88983	-3
1,89050	-3
1,89117	-3
1,89183	-3
1,89250	-3
1,89317	-3
1,89383	-3
1,89450	-3
1,89517	-3
1,89583	-3
1,89650	-3
1,89717	-3
1,89783	-3
1,89850	-3
1,89917	-3
1,89983	-3
1,90050	-3
1,90117	-3
1,90183	-3
1,90250	-3
1,90317	-3
1,90383	-3
1,90450	-3
1,90517	-3
1,90583	-3
1,90650	-3
1,90717	-3
1,90783	-3
1,90850	-3
1,90917	-3
1,90983	-3
1,91050	-3
1,91117	-3
1,91183	-3
1,91250	-3
1,91317	-3
1,91383	-3
1,91450	-3
1,91517	-3
1,91583	-3
1,91650	-3
1,91717	-3
1,91783	-3
1,91850	-3
1,91917	-3
1,91983	-3
1,92050	-3
1,92117	-3
1,92183	-3
1,92250	-3
1,92317	-3
1,92383	-3
1,92450	-3
1,92517	-3
1,92583	-3
1,92650	-3
1,92717	-3
1,92783	-3
1,92850	-3
1,92917	-3
1,92983	-3
1,93050	-3
1,93117	-3
1,93183	-3
1,93250	-3
1,93317	-3
1,93383	-3
1,93450	-3
1,93517	-3
1,93583	-3
1,93650	-3
1,93717	-3
1,93783	-3
1,93850	-3
1,93917	-3
1,93983	-3
1,94050	-3
1,94117	-3
1,94183	-3
1,94250	-3
1,94317	-3
1,94383	-3
1,94450	-3
1,94517	-3
1,94583	-3
1,94650	-3
1,94717	-3
1,94783	-3
1,94850	-3
1,94917	-3
1,94983	-3
1,95050	-3
1,95117	-3
1,95183	-3
1,95250	-3
1,95317	-3
1,95383	-3
1,95450	-3
1,95517	-3
1,95583	-3
1,95650	-3
1,95717	-3
1,95783	-3
1,95850	-3
1,95917	-3
1,95983	-3
1,96050	-3
1,96117	-3
1,96183	-3
1,96250	-3
1,96317	-3
1,96383	-3
1,96450	-3
1,96517	-3
1,96583	-3
1,96650	-3
1,96717	-3
1,96783	-3
1,96850	-3
1,96917	-3
1,96983	-3
1,97050	-3
1,97117	-3
1,97183	-3
1,97250	-3
1,97317	-3
1,97383	-3
1,97450	-3
1,97517	-3
1,97583	-3
1,97650	-3
1,97717	-3
1,97783	-3
1,97850	-3
1,97917	-3
1,97983	-3
1,98050	-3
1,98117	-3
1,98183	-3
1,98250	-3
1,98317	-3
1,98383	-3
1,98450	-3
1,98517	-3
1,98583	-3
1,98650	-3
1,98717	-3
1,98783	-3
1,98850	-3
1,98917	-3
1,98983	-3
1,99050	-3
1,99117	-3
1,99183	-3
1,99250	-3
1,99317	-2
1,99383	-2
1,99450	-2
1,99517	-2
1,99583	-2
1,99650	-2
1,99717	-2
1,99783	-2
1,99850	-2
1,99917	-2
1,99983	-2
2,00050	-2
2,00117	-2
2,00183	-2
2,00250	-1
2,00317	-1
2,00383	-1
2,00450	-1
2,00517	-1
2,00583	-1
2,00650	-1
2,00717	-1
2,00783	-1
2,00850	-0
2,00917	-0
2,00983	-0
2,01050	0
2,01117	0
2,01183	0
2,01250	1
2,01317	1
2,01383	1
2,01450	1
2,01517	1
2,01583	2
2,01650	2
2,01717	2
2,01783	2
2,01850	3
2,01917	3
2,01983	3
2,02050	3
2,02117	4
2,02183	4
2,02250	4
2,02317	5
2,02383	5
2,02450	5
2,02517	6
2,02583	6
2,02650	7
2,02717	7
2,02783	8
2,02850	8
2,02917	8
2,02983	9
2,03050	9
2,03117	10
2,03183	11
2,03250	11
2,03317	12
2,03383	12
2,03450	13
2,03517	14
2,03583	14
2,03650	15
2,03717	16
2,03783	16
2,03850	17
2,03917	18
2,03983	19
2,04050	19
2,04117	20
2,04183	21
2,04250	22
2,04317	23
2,04383	24
2,04450	25
2,04517	26
2,04583	27
2,04650	28
2,04717	29
2,04783	30
2,04850	31
2,04917	32
2,04983	34
2,05050	35
2,05117	36
2,05183	37
2,05250	39
2,05317	40
2,05383	42
2,05450	43
2,05517	45
2,05583	46
2,05650	48
2,05717	49
2,05783	51
2,05850	53
2,05917	54
2,05983	56
2,06050	58
2,06117	60
2,06183	62
2,06250	64
2,06317	66
2,06383	68
2,06450	70
2,06517	72
2,06583	74
2,06650	76
2,06717	78
2,06783	81
2,06850	83
2,06917	85
2,06983	88
2,07050	90
2,07117	93
2,07183	95
2,07250	98
2,07317	101
2,07383	104
2,07450	106
2,07517	109
2,07583	112
2,07650	115
2,07717	118
2,07783	121
2,07850	124
2,07917	127
2,07983	131
2,08050	134
2,08117	137
2,08183	141
2,08250	144
2,08317	148
2,08383	151
2,08450	155
2,08517	159
2,08583	163
2,08650	167
2,08717	170
2,08783	174
2,08850	178
2,08917	183
2,08983	187
2,09050	191
2,09117	195
2,09183	200
2,09250	204
2,09317	209
2,09383	213
2,09450	218
2,09517	222
2,09583	227
2,09650	232
2,09717	237
2,09783	242
2,09850	247
2,09917	252
2,09983	257
2,10050	262
2,10117	267
2,10183	273
2,10250	278
2,10317	284
2,10383	289
2,10450	295
2,10517	301
2,10583	306
2,10650	312
2,10717	318
2,10783	324
2,10850	330
2,10917	336
2,10983	342
2,11050	348
2,11117	355
2,11183	361
2,11250	368
2,11317	374
2,11383	381
2,11450	387
2,11517	394
2,11583	401
2,11650	408
2,11717	415
2,11783	422
2,11850	429
2,11917	436
2,11983	443
2,12050	450
2,12117	458
2,12183	465
2,12250	472
2,12317	480
2,12383	488
2,12450	495
2,12517	503
2,12583	511
2,12650	519
2,12717	527
2,12783	535
2,12850	543
2,12917	551
2,12983	559
2,13050	567
2,13117	576
2,13183	584
2,13250	593
2,13317	601
2,13383	610
2,13450	618
2,13517	627
2,13583	636
2,13650	645
2,13717	654
2,13783	663
2,13850	672
2,13917	681
2,13983	690
2,14050	699
2,14117	708
2,14183	718
2,14250	727
2,14317	737
2,14383	746
2,14450	756
2,14517	765
2,14583	775
2,14650	785
2,14717	795
2,14783	805
2,14850	815
2,14917	825
2,14983	835
2,15050	845
2,15117	855
2,15183	865
2,15250	875
2,15317	886
2,15383	896
2,15450	906
2,15517	917
2,15583	927
2,15650	938
2,15717	949
2,15783	959
2,15850	970
2,15917	981
2,15983	992
2,16050	1003
2,16117	1013
2,16183	1024
2,16250	1036
2,16317	1047
2,16383	1058
2,16450	1069
2,16517	1080
2,16583	1091
2,16650	1103
2,16717	1114
2,16783	1126
2,16850	1137
2,16917	1148
2,16983	1160
2,17050	1172
2,17117	1183
2,17183	1195
2,17250	1207
2,17317	1218
2,17383	1230
2,17450	1242
2,17517	1254
2,17583	1266
2,17650	1278
2,17717	1290
2,17783	1302
2,17850	1314
2,17917	1326
2,17983	1338
2,18050	1351
2,18117	1363
2,18183	1375
2,18250	1387
2,18317	1400
2,18383	1412
2,18450	1425
2,18517	1437
2,18583	1450
2,18650	1462
2,18717	1475
2,18783	1487
2,18850	1500
2,18917	1513
2,18983	1525
2,19050	1538
2,19117	1551
2,19183	1563
2,19250	1576
2,19317	1589
2,19383	1602
2,19450	1615
2,19517	1628
2,19583	1641
2,19650	1654
2,19717	1667
2,19783	1680
2,19850	1693
2,19917	1706
2,19983	1719
2,20050	1732
2,20117	1746
2,20183	1759
2,20250	1772
2,20317	1785
2,20383	1799
2,20450	1812
2,20517	1825
2,20583	1839
2,20650	1852
2,20717	1865
2,20783	1879
2,20850	1892
2,20917	1906
2,20983	1919
2,21050	1933
2,21117	1946
2,21183	1960
2,21250	1973
2,21317	1987
2,21383	2001
2,21450	2014
2,21517	2028
2,21583	2042
2,21650	2055
2,21717	2069
2,21783	2083
2,21850	2097
2,21917	2110
2,21983	2124
2,22050	2138
2,22117	2152
2,22183	2166
2,22250	2180
2,22317	2193
2,22383	2207
2,22450	2221
2,22517	2235
2,22583	2249
2,22650	2263
2,22717	2277
2,22783	2291
2,22850	2305
2,22917	2319
2,22983	2333
2,23050	2347
2,23117	2361
2,23183	2375
2,23250	2389
2,23317	2403
2,23383	2418
2,23450	2432
2,23517	2446
2,23583	2460
2,23650	2474
2,23717	2488
2,23783	2502
2,23850	2517
2,23917	2531
2,23983	2545
2,24050	2559
2,24117	2574
2,24183	2588
2,24250	2602
2,24317	2616
2,24383	2631
2,24450	2645
2,24517	2659
2,24583	2673
2,24650	2688
2,24717	2702
2,24783	2716
2,24850	2731
2,24917	2745
2,24983	2759
2,25050	2774
2,25117	2788
2,25183	2802
2,25250	2817
2,25317	2831
2,25383	2845
2,25450	2860
2,25517	2874
2,25583	2888
2,25650	2903
2,25717	2917
2,25783	2931
2,25850	2946
2,25917	2960
2,25983	2975
2,26050	2989
2,26117	3003
2,26183	3018
2,26250	3032
2,26317	3047
2,26383	3061
2,26450	3076
2,26517	3090
2,26583	3104
2,26650	3119
2,26717	3133
2,26783	3148
2,26850	3162
2,26917	3176
2,26983	3191
2,27050	3205
2,27117	3220
2,27183	3234
2,27250	3248
2,27317	3263
2,27383	3277
2,27450	3292
2,27517	3306
2,27583	3320
2,27650	3335
2,27717	3349
2,27783	3364
2,27850	3378
2,27917	3392
2,27983	3407
2,28050	3421
2,28117	3435
2,28183	3450
2,28250	3464
2,28317	3478
2,28383	3493
2,28450	3507
2,28517	3522
2,28583	3536
2,28650	3550
2,28717	3565
2,28783	3579
2,28850	3593
2,28917	3607
2,28983	3622
2,29050	3636
2,29117	3650
2,29183	3665
2,29250	3679
2,29317	3693
2,29383	3707
2,29450	3722
2,29517	3736
2,29583	3750
2,29650	3764
2,29717	3779
2,29783	3793
2,29850	3807
2,29917	3821
2,29983	3835
2,30050	3850
2,30117	3864
2,30183	3878
2,30250	3892
2,30317	3906
2,30383	3920
2,30450	3934
2,30517	3949
2,30583	3963
2,30650	3977
2,30717	3991
2,30783	4005
2,30850	4019
2,30917	4033
2,30983	4047
2,31050	4061
2,31117	4075
2,31183	4089
2,31250	4103
2,31317	4117
2,31383	4131
2,31450	4145
2,31517	4159
2,31583	4173
2,31650	4187
2,31717	4201
2,31783	4215
2,31850	4229
2,31917	4243
2,31983	4257
2,32050	4271
2,32117	4285
2,32183	4299
2,32250	4313
2,32317	4326
2,32383	4340
2,32450	4354
2,32517	4368
2,32583	4382
2,32650	4395
2,32717	4409
2,32783	4423
2,32850	4437
2,32917	4450
2,32983	4464
2,33050	4478
2,33117	4492
2,33183	4505
2,33250	4519
2,33317	4532
2,33383	4546
2,33450	4560
2,33517	4573
2,33583	4587
2,33650	4600
2,33717	4614
2,33783	4628
2,33850	4641
2,33917	4655
2,33983	4668
2,34050	4681
2,34117	4695
2,34183	4708
2,34250	4722
2,34317	4735
2,34383	4749
2,34450	4762
2,34517	4775
2,34583	4789
2,34650	4802
2,34717	4815
2,34783	4828
2,34850	4842
2,34917	4855
2,34983	4868
2,35050	4881
2,35117	4894
2,35183	4907
2,35250	4920
2,35317	4934
2,35383	4947
2,35450	4960
2,35517	4973
2,35583	4986
2,35650	4999
2,35717	5011
2,35783	5024
2,35850	5037
2,35917	5050
2,35983	5063
2,36050	5076
2,36117	5089
2,36183	5101
2,36250	5114
2,36317	5127
2,36383	5139
2,36450	5152
2,36517	5165
2,36583	5177
2,36650	5190
2,36717	5202
2,36783	5215
2,36850	5227
2,36917	5240
2,36983	5252
2,37050	5264
2,37117	5277
2,37183	5289
2,37250	5301
2,37317	5314
2,37383	5326
2,37450	5338
2,37517	5350
2,37583	5362
2,37650	5375
2,37717	5387
2,37783	5399
2,37850	5411
2,37917	5423
2,37983	5434
2,38050	5446
2,38117	5458
2,38183	5470
2,38250	5482
2,38317	5494
2,38383	5505
2,38450	5517
2,38517	5528
2,38583	5540
2,38650	5551
2,38717	5563
2,38783	5574
2,38850	5586
2,38917	5597
2,38983	5608
2,39050	5619
2,39117	5631
2,39183	5642
2,39250	5653
2,39317	5664
2,39383	5675
2,39450	5686
2,39517	5696
2,39583	5707
2,39650	5718
2,39717	5729
2,39783	5739
2,39850	5750
2,39917	5760
2,39983	5770
2,40050	5781
2,40117	5791
2,40183	5801
2,40250	5811
2,40317	5821
2,40383	5831
2,40450	5841
2,40517	5851
2,40583	5861
2,40650	5870
2,40717	5880
2,40783	5889
2,40850	5898
2,40917	5908
2,40983	5917
2,41050	5926
2,41117	5935
2,41183	5944
2,41250	5952
2,41317	5961
2,41383	5969
2,41450	5978
2,41517	5986
2,41583	5994
2,41650	6002
2,41717	6010
2,41783	6018
2,41850	6025
2,41917	6033
2,41983	6040
2,42050	6047
2,42117	6054
2,42183	6061
2,42250	6067
2,42317	6074
2,42383	6080
2,42450	6086
2,42517	6092
2,42583	6098
2,42650	6103
2,42717	6109
2,42783	6114
2,42850	6119
2,42917	6123
2,42983	6128
2,43050	6132
2,43117	6136
2,43183	6140
2,43250	6143
2,43317	6147
2,43383	6149
2,43450	6152
2,43517	6155
2,43583	6157
2,43650	6158
2,43717	6160
2,43783	6161
2,43850	6162
2,43917	6163
2,43983	6163
2,44050	6163
2,44117	6162
2,44183	6161
2,44250	6160
2,44317	6158
2,44383	6156
2,44450	6154
2,44517	6151
2,44583	6148
2,44650	6144
2,44717	6140
2,44783	6136
2,44850	6131
2,44917	6125
2,44983	6120
2,45050	6113
2,45117	6107
2,45183	6099
2,45250	6092
2,45317	6083
2,45383	6075
2,45450	6065
2,45517	6056
2,45583	6045
2,45650	6035
2,45717	6023
2,45783	6011
2,45850	5999
2,45917	5986
2,45983	5973
2,46050	5959
2,46117	5944
2,46183	5929
2,46250	5914
2,46317	5897
2,46383	5881
2,46450	5863
2,46517	5846
2,46583	5827
2,46650	5808
2,46717	5789
2,46783	5769
2,46850	5748
2,46917	5727
2,46983	5706
2,47050	5684
2,47117	5661
2,47183	5638
2,47250	5614
2,47317	5590
2,47383	5565
2,47450	5540
2,47517	5515
2,47583	5488
2,47650	5462
2,47717	5435
2,47783	5407
2,47850	5379
2,47917	5351
2,47983	5322
2,48050	5293
2,48117	5263
2,48183	5233
2,48250	5203
2,48317	5172
2,48383	5141
2,48450	5110
2,48517	5078
2,48583	5046
2,48650	5013
2,48717	4981
2,48783	4948
2,48850	4914
2,48917	4881
2,48983	4847
2,49050	4813
2,49117	4779
2,49183	4744
2,49250	4710
2,49317	4675
2,49383	4640
2,49450	4605
2,49517	4569
2,49583	4534
2,49650	4498
2,49717	4463
2,49783	4427
2,49850	4391
2,49917	4355
2,49983	4319
2,50050	4283
2,50117	4247
2,50183	4211
2,50250	4175
2,50317	4139
2,50383	4103
2,50450	4067
2,50517	4031
2,50583	3995
2,50650	3959
2,50717	3923
2,50783	3887
2,50850	3851
2,50917	3816
2,50983	3780
2,51050	3745
2,51117	3709
2,51183	3674
2,51250	3639
2,51317	3604
2,51383	3569
2,51450	3535
2,51517	3500
2,51583	3466
2,51650	3432
2,51717	3398
2,51783	3364
2,51850	3330
2,51917	3297
2,51983	3263
2,52050	3230
2,52117	3198
2,52183	3165
2,52250	3133
2,52317	3100
2,52383	3068
2,52450	3037
2,52517	3005
2,52583	2974
2,52650	2943
2,52717	2912
2,52783	2882
2,52850	2851
2,52917	2821
2,52983	2791
2,53050	2762
2,53117	2732
2,53183	2703
2,53250	2675
2,53317	2646
2,53383	2618
2,53450	2590
2,53517	2562
2,53583	2535
2,53650	2507
2,53717	2480
2,53783	2454
2,53850	2427
2,53917	2401
2,53983	2375
2,54050	2349
2,54117	2324
2,54183	2299
2,54250	2274
2,54317	2249
2,54383	2225
2,54450	2201
2,54517	2177
2,54583	2154
2,54650	2130
2,54717	2107
2,54783	2084
2,54850	2062
2,54917	2039
2,54983	2017
2,55050	1995
2,55117	1974
2,55183	1953
2,55250	1931
2,55317	1911
2,55383	1890
2,55450	1870
2,55517	1849
2,55583	1830
2,55650	1810
2,55717	1790
2,55783	1771
2,55850	1752
2,55917	1733
2,55983	1715
2,56050	1697
2,56117	1678
2,56183	1661
2,56250	1643
2,56317	1625
2,56383	1608
2,56450	1591
2,56517	1574
2,56583	1558
2,56650	1541
2,56717	1525
2,56783	1509
2,56850	1493
2,56917	1477
2,56983	1462
2,57050	1447
2,57117	1431
2,57183	1417
2,57250	1402
2,57317	1387
2,57383	1373
2,57450	1359
2,57517	1345
2,57583	1331
2,57650	1317
2,57717	1304
2,57783	1290
2,57850	1277
2,57917	1264
2,57983	1251
2,58050	1239
2,58117	1226
2,58183	1214
2,58250	1201
2,58317	1189
2,58383	1177
2,58450	1166
2,58517	1154
2,58583	1143
2,58650	1131
2,58717	1120
2,58783	1109
2,58850	1098
2,58917	1087
2,58983	1076
2,59050	1066
2,59117	1055
2,59183	1045
2,59250	1035
2,59317	1025
2,59383	1015
2,59450	1005
2,59517	995
2,59583	986
2,59650	976
2,59717	967
2,59783	958
2,59850	949
2,59917	940
2,59983	931
2,60050	922
2,60117	913
2,60183	905
2,60250	896
2,60317	888
2,60383	879
2,60450	871
2,60517	863
2,60583	855
2,60650	847
2,60717	839
2,60783	832
2,60850	824
2,60917	816
2,60983	809
2,61050	801
2,61117	794
2,61183	787
2,61250	780
2,61317	773
2,61383	766
2,61450	759
2,61517	752
2,61583	745
2,61650	739
2,61717	732
2,61783	726
2,61850	719
2,61917	713
2,61983	706
2,62050	700
2,62117	694
2,62183	688
2,62250	682
2,62317	676
2,62383	670
2,62450	664
2,62517	659
2,62583	653
2,62650	647
2,62717	642
2,62783	636
2,62850	631
2,62917	625
2,62983	620
2,63050	615
2,63117	609
2,63183	604
2,63250	599
2,63317	594
2,63383	589
2,63450	584
2,63517	579
2,63583	574
2,63650	569
2,63717	565
2,63783	560
2,63850	555
2,63917	551
2,63983	546
2,64050	542
2,64117	537
2,64183	533
2,64250	528
2,64317	524
2,64383	520
2,64450	515
2,64517	511
2,64583	507
2,64650	503
2,64717	499
2,64783	495
2,64850	491
2,64917	487
2,64983	483
2,65050	479
2,65117	475
2,65183	471
2,65250	468
2,65317	464
2,65383	460
2,65450	456
2,65517	453
2,65583	449
2,65650	446
2,65717	442
2,65783	439
2,65850	435
2,65917	432
2,65983	428
2,66050	425
2,66117	422
2,66183	418
2,66250	415
2,66317	412
2,66383	409
2,66450	405
2,66517	402
2,66583	399
2,66650	396
2,66717	393
2,66783	390
2,66850	387
2,66917	384
2,66983	381
2,67050	378
2,67117	375
2,67183	372
2,67250	369
2,67317	366
2,67383	364
2,67450	361
2,67517	358
2,67583	355
2,67650	353
2,67717	350
2,67783	347
2,67850	345
2,67917	342
2,67983	339
2,68050	337
2,68117	334
2,68183	332
2,68250	329
2,68317	327
2,68383	324
2,68450	322
2,68517	320
2,68583	317
2,68650	315
2,68717	313
2,68783	310
2,68850	308
2,68917	306
2,68983	303
2,69050	301
2,69117	299
2,69183	297
2,69250	295
2,69317	292
2,69383	290
2,69450	288
2,69517	286
2,69583	284
2,69650	282
2,69717	280
2,69783	278
2,69850	276
2,69917	274
2,69983	272
2,70050	270
2,70117	268
2,70183	266
2,70250	264
2,70317	262
2,70383	260
2,70450	258
2,70517	256
2,70583	255
2,70650	253
2,70717	251
2,70783	249
2,70850	247
2,70917	245
2,70983	244
2,71050	242
2,71117	240
2,71183	238
2,71250	237
2,71317	235
2,71383	233
2,71450	232
2,71517	230
2,71583	228
2,71650	227
2,71717	225
2,71783	224
2,71850	222
2,71917	220
2,71983	219
2,72050	217
2,72117	216
2,72183	214
2,72250	213
2,72317	211
2,72383	210
2,72450	208
2,72517	207
2,72583	205
2,72650	204
2,72717	202
2,72783	201
2,72850	200
2,72917	198
2,72983	197
2,73050	195
2,73117	194
2,73183	193
2,73250	191
2,73317	190
2,73383	189
2,73450	187
2,73517	186
2,73583	185
2,73650	184
2,73717	182
2,73783	181
2,73850	180
2,73917	178
2,73983	177
2,74050	176
2,74117	175
2,74183	174
2,74250	172
2,74317	171
2,74383	170
2,74450	169
2,74517	168
2,74583	166
2,74650	165
2,74717	164
2,74783	163
2,74850	162
2,74917	161
2,74983	160
2,75050	159
2,75117	157
2,75183	156
2,75250	155
2,75317	154
2,75383	153
2,75450	152
2,75517	151
2,75583	150
2,75650	149
2,75717	148
2,75783	147
2,75850	146
2,75917	145
2,75983	144
2,76050	143
2,76117	142
2,76183	141
2,76250	140
2,76317	139
2,76383	138
2,76450	137
2,76517	136
2,76583	135
2,76650	134
2,76717	134
2,76783	133
2,76850	132
2,76917	131
2,76983	130
2,77050	129
2,77117	128
2,77183	127
2,77250	126
2,77317	126
2,77383	125
2,77450	124
2,77517	123
2,77583	122
2,77650	121
2,77717	121
2,77783	120
2,77850	119
2,77917	118
2,77983	117
2,78050	117
2,78117	116
2,78183	115
2,78250	114
2,78317	114
2,78383	113
2,78450	112
2,78517	111
2,78583	111
2,78650	110
2,78717	109
2,78783	108
2,78850	108
2,78917	107
2,78983	106
2,79050	105
2,79117	105
2,79183	104
2,79250	103
2,79317	103
2,79383	102
2,79450	101
2,79517	101
2,79583	100
2,79650	99
2,79717	99
2,79783	98
2,79850	97
2,79917	97
2,79983	96
2,80050	95
2,80117	95
2,80183	94
2,80250	94
2,80317	93
2,80383	92
2,80450	92
2,80517	91
2,80583	91
2,80650	90
2,80717	89
2,80783	89
2,80850	88
2,80917	88
2,80983	87
2,81050	87
2,81117	86
2,81183	85
2,81250	85
2,81317	84
2,81383	84
2,81450	83
2,81517	83
2,81583	82
2,81650	82
2,81717	81
2,81783	81
2,81850	80
2,81917	80
2,81983	79
2,82050	79
2,82117	78
2,82183	78
2,82250	77
2,82317	77
2,82383	76
2,82450	76
2,82517	75
2,82583	75
2,82650	74
2,82717	74
2,82783	73
2,82850	73
2,82917	72
2,82983	72
2,83050	71
2,83117	71
2,83183	71
2,83250	70
2,83317	70
2,83383	69
2,83450	69
2,83517	68
2,83583	68
2,83650	67
2,83717	67
2,83783	67
2,83850	66
2,83917	66
2,83983	65
2,84050	65
2,84117	65
2,84183	64
2,84250	64
2,84317	63
2,84383	63
2,84450	62
2,84517	62
2,84583	62
2,84650	61
2,84717	61
2,84783	61
2,84850	60
2,84917	60
2,84983	59
2,85050	59
2,85117	59
2,85183	58
2,85250	58
2,85317	58
2,85383	57
2,85450	57
2,85517	56
2,85583	56
2,85650	56
2,85717	55
2,85783	55
2,85850	55
2,85917	54
2,85983	54
2,86050	54
2,86117	53
2,86183	53
2,86250	53
2,86317	52
2,86383	52
2,86450	52
2,86517	51
2,86583	51
2,86650	51
2,86717	50
2,86783	50
2,86850	50
2,86917	50
2,86983	49
2,87050	49
2,87117	49
2,87183	48
2,87250	48
2,87317	48
2,87383	47
2,87450	47
2,87517	47
2,87583	47
2,87650	46
2,87717	46
2,87783	46
2,87850	45
2,87917	45
2,87983	45
2,88050	45
2,88117	44
2,88183	44
2,88250	44
2,88317	43
2,88383	43
2,88450	43
2,88517	43
2,88583	42
2,88650	42
2,88717	42
2,88783	42
2,88850	41
2,88917	41
2,88983	41
2,89050	41
2,89117	40
2,89183	40
2,89250	40
2,89317	40
2,89383	39
2,89450	39
2,89517	39
2,89583	39
2,89650	39
2,89717	38
2,89783	38
2,89850	38
2,89917	38
2,89983	37
2,90050	37
2,90117	37
2,90183	37
2,90250	36
2,90317	36
2,90383	36
2,90450	36
2,90517	36
2,90583	35
2,90650	35
2,90717	35
2,90783	35
2,90850	34
2,90917	34
2,90983	34
2,91050	34
2,91117	34
2,91183	33
2,91250	33
2,91317	33
2,91383	33
2,91450	33
2,91517	32
2,91583	32
2,91650	32
2,91717	32
2,91783	32
2,91850	31
2,91917	31
2,91983	31
2,92050	31
2,92117	31
2,92183	30
2,92250	30
2,92317	30
2,92383	30
2,92450	30
2,92517	29
2,92583	29
2,92650	29
2,92717	29
2,92783	29
2,92850	29
2,92917	28
2,92983	28
2,93050	28
2,93117	28
2,93183	28
2,93250	28
2,93317	27
2,93383	27
2,93450	27
2,93517	27
2,93583	27
2,93650	27
2,93717	26
2,93783	26
2,93850	26
2,93917	26
2,93983	26
2,94050	26
2,94117	25
2,94183	25
2,94250	25
2,94317	25
2,94383	25
2,94450	25
2,94517	24
2,94583	24
2,94650	24
2,94717	24
2,94783	24
2,94850	24
2,94917	24
2,94983	23
2,95050	23
2,95117	23
2,95183	23
2,95250	23
2,95317	23
2,95383	23
2,95450	23
2,95517	22
2,95583	22
2,95650	22
2,95717	22
2,95783	22
2,95850	22
2,95917	22
2,95983	21
2,96050	21
2,96117	21
2,96183	21
2,96250	21
2,96317	21
2,96383	21
2,96450	21
2,96517	21
2,96583	20
2,96650	20
2,96717	20
2,96783	20
2,96850	20
2,96917	20
2,96983	20
2,97050	20
2,97117	19
2,97183	19
2,97250	19
2,97317	19
2,97383	19
2,97450	19
2,97517	19
2,97583	19
2,97650	19
2,97717	18
2,97783	18
2,97850	18
2,97917	18
2,97983	18
2,98050	18
2,98117	18
2,98183	18
2,98250	18
2,98317	18
2,98383	17
2,98450	17
2,98517	17
2,98583	17
2,98650	17
2,98717	17
2,98783	17
2,98850	17
2,98917	17
2,98983	17
2,99050	16
2,99117	16
2,99183	16
2,99250	16
2,99317	16
2,99383	16
2,99450	16
2,99517	16
2,99583	16
2,99650	16
2,99717	16
2,99783	16
2,99850	15
2,99917	15
2,99983	15
3,00050	15
3,00117	15
3,00183	15
3,00250	15
3,00317	15
3,00383	15
3,00450	15
3,00517	15
3,00583	14
3,00650	14
3,00717	14
3,00783	14
3,00850	14
3,00917	14
3,00983	14
3,01050	14
3,01117	14
3,01183	14
3,01250	14
3,01317	14
3,01383	14
3,01450	13
3,01517	13
3,01583	13
3,01650	13
3,01717	13
3,01783	13
3,01850	13
3,01917	13
3,01983	13
3,02050	13
3,02117	13
3,02183	13
3,02250	13
3,02317	13
3,02383	12
3,02450	12
3,02517	12
3,02583	12
3,02650	12
3,02717	12
3,02783	12
3,02850	12
3,02917	12
3,02983	12
3,03050	12
3,03117	12
3,03183	12
3,03250	12
3,03317	11
3,03383	11
3,03450	11
3,03517	11
3,03583	11
3,03650	11
3,03717	11
3,03783	11
3,03850	11
3,03917	11
3,03983	11
3,04050	11
3,04117	11
3,04183	11
3,04250	11
3,04317	11
3,04383	10
3,04450	10
3,04517	10
3,04583	10
3,04650	10
3,04717	10
3,04783	10
3,04850	10
3,04917	10
3,04983	10
3,05050	10
3,05117	10
3,05183	10
3,05250	10
3,05317	10
3,05383	10
3,05450	10
3,05517	9
3,05583	9
3,05650	9
3,05717	9
3,05783	9
3,05850	9
3,05917	9
3,05983	9
3,06050	9
3,06117	9
3,06183	9
3,06250	9
3,06317	9
3,06383	9
3,06450	9
3,06517	9
3,06583	9
3,06650	8
3,06717	8
3,06783	8
3,06850	8
3,06917	8
3,06983	8
3,07050	8
3,07117	8
3,07183	8
3,07250	8
3,07317	8
3,07383	8
3,07450	8
3,07517	8
3,07583	8
3,07650	8
3,07717	8
3,07783	8
3,07850	8
3,07917	8
3,07983	8
3,08050	7
3,08117	7
3,08183	7
3,08250	7
3,08317	7
3,08383	7
3,08450	7
3,08517	7
3,08583	7
3,08650	7
3,08717	7
3,08783	7
3,08850	7
3,08917	7
3,08983	7
3,09050	7
3,09117	7
3,09183	7
3,09250	7
3,09317	7
3,09383	7
3,09450	7
3,09517	7
3,09583	6
3,09650	6
3,09717	6
3,09783	6
3,09850	6
3,09917	6
3,09983	6
3,10050	6
3,10117	6
3,10183	6
3,10250	6
3,10317	6
3,10383	6
3,10450	6
3,10517	6
3,10583	6
3,10650	6
3,10717	6
3,10783	6
3,10850	6
3,10917	6
3,10983	6
3,11050	6
3,11117	6
3,11183	6
3,11250	6
3,11317	6
3,11383	6
3,11450	6
3,11517	5
3,11583	5
3,11650	5
3,11717	5
3,11783	5
3,11850	5
3,11917	5
3,11983	5
3,12050	5
3,12117	5
3,12183	5
3,12250	5
3,12317	5
3,12383	5
3,12450	5
3,12517	5
3,12583	5
3,12650	5
3,12717	5
3,12783	5
3,12850	5
3,12917	5
3,12983	5
3,13050	5
3,13117	5
3,13183	5
3,13250	5
3,13317	5
3,13383	5
3,13450	5
3,13517	5
3,13583	4
3,13650	4
3,13717	4
3,13783	4
3,13850	4
3,13917	4
3,13983	4
3,14050	4
3,14117	4
3,14183	4
3,14250	4
3,14317	4
3,14383	4
3,14450	4
3,14517	4
3,14583	4
3,14650	4
3,14717	4
3,14783	4
3,14850	4
3,14917	4
3,14983	4
3,15050	4
3,15117	4
3,15183	4
3,15250	4
3,15317	4
3,15383	4
3,15450	4
3,15517	4
3,15583	4
3,15650	4

[Chromatogram Additional (Ch1)]
Maximum	6163
Minimum	-4

