[Header]
Data File Name	D:\Praktikum\WS2020-2021\02122020\ethanol_120°.gcd
Output Date	02.12.2020
Output Time	16:40:47

[File Information]
Type	Data File
Generated	02.12.2020 14:01:27
Generated by	GCMS
Modified	02.12.2020 14:01:27
Modified by	GCMS

[Sample Information]
Operator Name	GCMS
Acquisition Date	02.12.2020 13:59:20
Type	Unknown
Level	1
Sample Name	ethanol_120°
Sample ID	ethanol_120°
ISTD Amount1	1
ISTD Amount2	1
ISTD Amount3	1
ISTD Amount4	1
ISTD Amount5	1
ISTD Amount6	1
ISTD Amount7	1
ISTD Amount8	1
ISTD Amount9	1
ISTD Amount10	1
ISTD Amount11	1
ISTD Amount12	1
ISTD Amount13	1
ISTD Amount14	1
ISTD Amount15	1
ISTD Amount16	1
Sample Amount	1
Dilution Factor	1
Vial#	1
Injection Volume	0
Injection Count	0
Bar Code	

[Original Files]
Data File	D:\Praktikum\WS2020-2021\02122020\ethanol_120°.gcd
Method File	D:\Praktikum\Alkohole GC-2014.gcm
Batch File	
Report Format File	D:\Praktikum\Praktikum.gcr

[File Comment]


[Configration]
Instrument Name	GC-2014
Instrument #	1
Line #	1

[Peak Table (Ch1)]
# of Peaks	1
Peak#	R.Time	I.Time	F.Time	Area	Height	A/H	Conc.	Mark	ID#	Name	k'	Plate #	Plate Ht.	Tailing	Resolution	Sep.Factor
1	0,974	0,780	1,737	6382	392	16,27	0,00000	 V 			0,000	89,600	0,000	0,000	0,000	0,000

[Compound Results (Ch1)]
# of IDs	4
ID#	Name	R.Time	Area	Height	Conc.	Curve	3rd	2nd	1st	Constant
1	Luft	0,000	0	0	0,00000	Default					
2	Dreck	0,000	0	0	0,00000	Default					
3	Propanol	0,000	0	0	0,00000	Default					
4	Butanol	0,000	0	0	0,00000	Default					

[Group Results (Ch1)]
# of Groups	0

[Chromatogram (Ch1)]
Interval(msec)	40
# of Points	3122
Start Time(min)	0,001
End Time(min)	2,082
R.Time	Intensity
0,00067	-1
0,00133	-1
0,00200	-1
0,00267	-1
0,00333	-1
0,00400	-1
0,00467	-1
0,00533	-1
0,00600	-1
0,00667	-1
0,00733	-1
0,00800	-1
0,00867	-1
0,00933	-1
0,01000	-1
0,01067	-1
0,01133	-1
0,01200	-1
0,01267	-1
0,01333	-1
0,01400	-1
0,01467	-1
0,01533	-1
0,01600	-1
0,01667	-1
0,01733	-1
0,01800	-1
0,01867	-1
0,01933	-1
0,02000	-1
0,02067	-1
0,02133	-1
0,02200	-1
0,02267	-1
0,02333	-1
0,02400	-1
0,02467	-1
0,02533	-1
0,02600	-1
0,02667	-1
0,02733	-1
0,02800	-1
0,02867	-1
0,02933	-1
0,03000	-1
0,03067	-1
0,03133	-1
0,03200	-1
0,03267	-1
0,03333	-1
0,03400	-1
0,03467	-1
0,03533	-1
0,03600	-1
0,03667	-1
0,03733	-1
0,03800	-1
0,03867	-1
0,03933	-1
0,04000	-1
0,04067	-1
0,04133	-1
0,04200	-1
0,04267	-1
0,04333	-1
0,04400	-1
0,04467	-1
0,04533	-1
0,04600	-1
0,04667	-1
0,04733	-1
0,04800	-1
0,04867	-1
0,04933	-1
0,05000	-1
0,05067	-1
0,05133	-1
0,05200	-1
0,05267	-1
0,05333	-1
0,05400	-1
0,05467	-1
0,05533	-1
0,05600	-1
0,05667	-1
0,05733	-1
0,05800	-1
0,05867	-1
0,05933	-1
0,06000	-1
0,06067	-1
0,06133	-1
0,06200	-1
0,06267	-1
0,06333	-1
0,06400	-1
0,06467	-1
0,06533	-1
0,06600	-1
0,06667	-1
0,06733	-1
0,06800	-1
0,06867	-1
0,06933	-1
0,07000	-1
0,07067	-1
0,07133	-1
0,07200	-1
0,07267	-1
0,07333	-1
0,07400	-1
0,07467	-1
0,07533	-1
0,07600	-1
0,07667	-1
0,07733	-1
0,07800	-1
0,07867	-1
0,07933	-1
0,08000	-1
0,08067	-1
0,08133	-1
0,08200	-1
0,08267	-1
0,08333	-1
0,08400	-1
0,08467	-1
0,08533	-1
0,08600	-1
0,08667	-1
0,08733	-1
0,08800	-1
0,08867	-1
0,08933	-1
0,09000	-1
0,09067	-1
0,09133	-1
0,09200	-1
0,09267	-1
0,09333	-1
0,09400	-1
0,09467	-1
0,09533	-1
0,09600	-1
0,09667	-1
0,09733	-1
0,09800	-1
0,09867	-1
0,09933	-1
0,10000	-1
0,10067	-1
0,10133	-1
0,10200	-1
0,10267	-1
0,10333	-1
0,10400	-1
0,10467	-1
0,10533	-1
0,10600	-1
0,10667	-1
0,10733	-1
0,10800	-1
0,10867	-1
0,10933	-1
0,11000	-1
0,11067	-1
0,11133	-1
0,11200	-1
0,11267	-1
0,11333	-1
0,11400	-1
0,11467	-1
0,11533	-1
0,11600	-1
0,11667	-1
0,11733	-1
0,11800	-1
0,11867	-1
0,11933	-1
0,12000	-1
0,12067	-1
0,12133	-1
0,12200	-1
0,12267	-1
0,12333	-1
0,12400	-1
0,12467	-1
0,12533	-1
0,12600	-1
0,12667	-1
0,12733	-1
0,12800	-1
0,12867	-1
0,12933	-1
0,13000	-1
0,13067	-1
0,13133	-1
0,13200	-1
0,13267	-1
0,13333	-1
0,13400	-1
0,13467	-1
0,13533	-1
0,13600	-1
0,13667	-1
0,13733	-1
0,13800	-1
0,13867	-1
0,13933	-1
0,14000	-1
0,14067	-1
0,14133	-1
0,14200	-1
0,14267	-1
0,14333	-1
0,14400	-1
0,14467	-1
0,14533	-1
0,14600	-1
0,14667	-1
0,14733	-1
0,14800	-1
0,14867	-1
0,14933	-1
0,15000	-1
0,15067	-1
0,15133	-1
0,15200	-1
0,15267	-1
0,15333	-1
0,15400	-1
0,15467	-1
0,15533	-1
0,15600	-1
0,15667	-1
0,15733	-1
0,15800	-1
0,15867	-1
0,15933	-1
0,16000	-1
0,16067	-1
0,16133	-1
0,16200	-1
0,16267	-1
0,16333	-1
0,16400	-1
0,16467	-1
0,16533	-1
0,16600	-1
0,16667	-1
0,16733	-1
0,16800	-1
0,16867	-1
0,16933	-1
0,17000	-1
0,17067	-1
0,17133	-1
0,17200	-1
0,17267	-1
0,17333	-1
0,17400	-1
0,17467	-1
0,17533	-1
0,17600	-1
0,17667	-1
0,17733	-1
0,17800	-1
0,17867	-1
0,17933	-1
0,18000	-1
0,18067	-1
0,18133	-1
0,18200	-1
0,18267	-1
0,18333	-1
0,18400	-1
0,18467	-1
0,18533	-1
0,18600	-1
0,18667	-1
0,18733	-1
0,18800	-1
0,18867	-1
0,18933	-1
0,19000	-1
0,19067	-1
0,19133	-1
0,19200	-1
0,19267	-1
0,19333	-1
0,19400	-1
0,19467	-1
0,19533	-1
0,19600	-1
0,19667	-1
0,19733	-1
0,19800	-1
0,19867	-1
0,19933	-1
0,20000	-1
0,20067	-1
0,20133	-1
0,20200	-1
0,20267	-1
0,20333	-1
0,20400	-1
0,20467	-1
0,20533	-1
0,20600	-1
0,20667	-1
0,20733	-1
0,20800	-1
0,20867	-1
0,20933	-1
0,21000	-1
0,21067	-1
0,21133	-1
0,21200	-1
0,21267	-1
0,21333	-1
0,21400	-1
0,21467	-1
0,21533	-1
0,21600	-1
0,21667	-1
0,21733	-1
0,21800	-1
0,21867	-1
0,21933	-1
0,22000	-1
0,22067	-1
0,22133	-1
0,22200	-1
0,22267	-1
0,22333	-1
0,22400	-1
0,22467	-1
0,22533	-1
0,22600	-1
0,22667	-1
0,22733	-1
0,22800	-1
0,22867	-1
0,22933	-1
0,23000	-1
0,23067	-1
0,23133	-1
0,23200	-1
0,23267	-1
0,23333	-1
0,23400	-1
0,23467	-1
0,23533	-1
0,23600	-1
0,23667	-1
0,23733	-1
0,23800	-1
0,23867	-1
0,23933	-1
0,24000	-1
0,24067	-1
0,24133	-1
0,24200	-1
0,24267	-1
0,24333	-1
0,24400	-1
0,24467	-1
0,24533	-1
0,24600	-1
0,24667	-1
0,24733	-1
0,24800	-1
0,24867	-1
0,24933	-1
0,25000	-1
0,25067	-1
0,25133	-1
0,25200	-1
0,25267	-1
0,25333	-1
0,25400	-1
0,25467	-1
0,25533	-1
0,25600	-1
0,25667	-1
0,25733	-1
0,25800	-1
0,25867	-1
0,25933	-1
0,26000	-1
0,26067	-1
0,26133	-1
0,26200	-1
0,26267	-1
0,26333	-1
0,26400	-1
0,26467	-1
0,26533	-1
0,26600	-1
0,26667	-1
0,26733	-1
0,26800	-1
0,26867	-1
0,26933	-1
0,27000	-1
0,27067	-1
0,27133	-1
0,27200	-1
0,27267	-1
0,27333	-1
0,27400	-1
0,27467	-1
0,27533	-1
0,27600	-1
0,27667	-1
0,27733	-1
0,27800	-1
0,27867	-1
0,27933	-1
0,28000	-1
0,28067	-1
0,28133	-1
0,28200	-1
0,28267	-1
0,28333	-1
0,28400	-1
0,28467	-1
0,28533	-1
0,28600	-1
0,28667	-1
0,28733	-1
0,28800	-1
0,28867	-1
0,28933	-1
0,29000	-1
0,29067	-1
0,29133	-1
0,29200	-1
0,29267	-1
0,29333	-1
0,29400	-1
0,29467	-1
0,29533	-1
0,29600	-1
0,29667	-1
0,29733	-1
0,29800	-1
0,29867	-1
0,29933	-1
0,30000	-1
0,30067	-1
0,30133	-1
0,30200	-1
0,30267	-1
0,30333	-1
0,30400	-1
0,30467	-1
0,30533	-1
0,30600	-1
0,30667	-1
0,30733	-1
0,30800	-1
0,30867	-1
0,30933	-1
0,31000	-1
0,31067	-1
0,31133	-1
0,31200	-1
0,31267	-1
0,31333	-1
0,31400	-1
0,31467	-1
0,31533	-1
0,31600	-1
0,31667	-1
0,31733	-1
0,31800	-1
0,31867	-1
0,31933	-1
0,32000	-1
0,32067	-1
0,32133	-1
0,32200	-1
0,32267	-1
0,32333	-1
0,32400	-1
0,32467	-1
0,32533	-1
0,32600	-1
0,32667	-1
0,32733	-1
0,32800	-1
0,32867	-1
0,32933	-1
0,33000	-1
0,33067	-1
0,33133	-1
0,33200	-1
0,33267	-1
0,33333	-1
0,33400	-1
0,33467	-1
0,33533	-1
0,33600	-1
0,33667	-1
0,33733	-1
0,33800	-1
0,33867	-1
0,33933	-1
0,34000	-1
0,34067	-1
0,34133	-1
0,34200	-1
0,34267	-1
0,34333	-1
0,34400	-1
0,34467	-1
0,34533	-1
0,34600	-1
0,34667	-1
0,34733	-1
0,34800	-1
0,34867	-1
0,34933	-1
0,35000	-1
0,35067	-1
0,35133	-1
0,35200	-1
0,35267	-1
0,35333	-1
0,35400	-1
0,35467	-1
0,35533	-1
0,35600	-1
0,35667	-1
0,35733	-1
0,35800	-1
0,35867	-1
0,35933	-1
0,36000	-1
0,36067	-1
0,36133	-1
0,36200	-1
0,36267	-1
0,36333	-1
0,36400	-1
0,36467	-1
0,36533	-1
0,36600	-1
0,36667	-1
0,36733	-1
0,36800	-1
0,36867	-1
0,36933	-1
0,37000	-1
0,37067	-1
0,37133	-1
0,37200	-1
0,37267	-1
0,37333	-1
0,37400	-1
0,37467	-1
0,37533	-1
0,37600	-1
0,37667	-1
0,37733	-1
0,37800	-1
0,37867	-1
0,37933	-1
0,38000	-1
0,38067	-1
0,38133	-1
0,38200	-1
0,38267	-1
0,38333	-1
0,38400	-1
0,38467	-1
0,38533	-1
0,38600	-1
0,38667	-1
0,38733	-1
0,38800	-1
0,38867	-1
0,38933	-1
0,39000	-1
0,39067	-1
0,39133	-1
0,39200	-1
0,39267	-1
0,39333	-1
0,39400	-1
0,39467	-1
0,39533	-1
0,39600	-1
0,39667	-1
0,39733	-1
0,39800	-1
0,39867	-1
0,39933	-1
0,40000	-1
0,40067	-1
0,40133	-1
0,40200	-1
0,40267	-1
0,40333	-1
0,40400	-1
0,40467	-1
0,40533	-1
0,40600	-1
0,40667	-1
0,40733	-1
0,40800	-1
0,40867	-1
0,40933	-1
0,41000	-1
0,41067	-1
0,41133	-1
0,41200	-1
0,41267	-1
0,41333	-1
0,41400	-1
0,41467	-1
0,41533	-1
0,41600	-1
0,41667	-1
0,41733	-1
0,41800	-1
0,41867	-1
0,41933	-1
0,42000	-1
0,42067	-1
0,42133	-1
0,42200	-1
0,42267	-1
0,42333	-1
0,42400	-1
0,42467	-1
0,42533	-1
0,42600	-1
0,42667	-1
0,42733	-1
0,42800	-1
0,42867	-1
0,42933	-1
0,43000	-1
0,43067	-1
0,43133	-1
0,43200	-1
0,43267	-1
0,43333	-1
0,43400	-1
0,43467	-1
0,43533	-1
0,43600	-1
0,43667	-1
0,43733	-1
0,43800	-1
0,43867	-1
0,43933	-1
0,44000	-1
0,44067	-1
0,44133	-1
0,44200	-1
0,44267	-1
0,44333	-1
0,44400	-1
0,44467	-1
0,44533	-1
0,44600	-1
0,44667	-1
0,44733	-1
0,44800	-1
0,44867	-1
0,44933	-1
0,45000	-1
0,45067	-1
0,45133	-1
0,45200	-1
0,45267	-1
0,45333	-1
0,45400	-1
0,45467	-1
0,45533	-1
0,45600	-1
0,45667	-1
0,45733	-1
0,45800	-1
0,45867	-1
0,45933	-1
0,46000	-1
0,46067	-1
0,46133	-1
0,46200	-1
0,46267	-1
0,46333	-1
0,46400	-1
0,46467	-1
0,46533	-1
0,46600	-1
0,46667	-1
0,46733	-1
0,46800	-1
0,46867	-1
0,46933	-1
0,47000	-1
0,47067	-1
0,47133	-1
0,47200	-1
0,47267	-1
0,47333	-1
0,47400	-1
0,47467	-1
0,47533	-1
0,47600	-1
0,47667	-1
0,47733	-1
0,47800	-1
0,47867	-1
0,47933	-1
0,48000	-1
0,48067	-1
0,48133	-1
0,48200	-1
0,48267	-1
0,48333	-1
0,48400	-1
0,48467	-1
0,48533	-1
0,48600	-1
0,48667	-1
0,48733	-1
0,48800	-1
0,48867	-1
0,48933	-1
0,49000	-1
0,49067	-1
0,49133	-1
0,49200	-1
0,49267	-1
0,49333	-1
0,49400	-1
0,49467	-1
0,49533	-1
0,49600	-1
0,49667	-1
0,49733	-1
0,49800	-1
0,49867	-1
0,49933	-1
0,50000	-1
0,50067	-1
0,50133	-1
0,50200	-1
0,50267	-1
0,50333	-1
0,50400	-1
0,50467	-1
0,50533	-0
0,50600	-0
0,50667	-0
0,50733	-0
0,50800	-0
0,50867	-0
0,50933	0
0,51000	0
0,51067	0
0,51133	0
0,51200	0
0,51267	0
0,51333	0
0,51400	0
0,51467	0
0,51533	1
0,51600	1
0,51667	1
0,51733	1
0,51800	1
0,51867	1
0,51933	1
0,52000	1
0,52067	1
0,52133	1
0,52200	1
0,52267	2
0,52333	2
0,52400	2
0,52467	2
0,52533	2
0,52600	2
0,52667	2
0,52733	2
0,52800	3
0,52867	3
0,52933	3
0,53000	3
0,53067	3
0,53133	3
0,53200	3
0,53267	4
0,53333	4
0,53400	4
0,53467	4
0,53533	4
0,53600	4
0,53667	5
0,53733	5
0,53800	5
0,53867	5
0,53933	5
0,54000	5
0,54067	6
0,54133	6
0,54200	6
0,54267	6
0,54333	6
0,54400	7
0,54467	7
0,54533	7
0,54600	7
0,54667	7
0,54733	8
0,54800	8
0,54867	8
0,54933	8
0,55000	9
0,55067	9
0,55133	9
0,55200	9
0,55267	10
0,55333	10
0,55400	10
0,55467	10
0,55533	11
0,55600	11
0,55667	11
0,55733	11
0,55800	12
0,55867	12
0,55933	12
0,56000	12
0,56067	13
0,56133	13
0,56200	13
0,56267	14
0,56333	14
0,56400	14
0,56467	14
0,56533	15
0,56600	15
0,56667	15
0,56733	15
0,56800	16
0,56867	16
0,56933	16
0,57000	17
0,57067	17
0,57133	17
0,57200	17
0,57267	18
0,57333	18
0,57400	18
0,57467	19
0,57533	19
0,57600	19
0,57667	19
0,57733	20
0,57800	20
0,57867	20
0,57933	20
0,58000	21
0,58067	21
0,58133	21
0,58200	21
0,58267	22
0,58333	22
0,58400	22
0,58467	23
0,58533	23
0,58600	23
0,58667	23
0,58733	24
0,58800	24
0,58867	24
0,58933	24
0,59000	25
0,59067	25
0,59133	25
0,59200	26
0,59267	26
0,59333	26
0,59400	26
0,59467	27
0,59533	27
0,59600	27
0,59667	27
0,59733	28
0,59800	28
0,59867	28
0,59933	28
0,60000	29
0,60067	29
0,60133	29
0,60200	29
0,60267	30
0,60333	30
0,60400	30
0,60467	30
0,60533	30
0,60600	31
0,60667	31
0,60733	31
0,60800	31
0,60867	32
0,60933	32
0,61000	32
0,61067	32
0,61133	32
0,61200	33
0,61267	33
0,61333	33
0,61400	33
0,61467	33
0,61533	34
0,61600	34
0,61667	34
0,61733	34
0,61800	34
0,61867	35
0,61933	35
0,62000	35
0,62067	35
0,62133	35
0,62200	35
0,62267	36
0,62333	36
0,62400	36
0,62467	36
0,62533	36
0,62600	36
0,62667	37
0,62733	37
0,62800	37
0,62867	37
0,62933	37
0,63000	37
0,63067	37
0,63133	37
0,63200	38
0,63267	38
0,63333	38
0,63400	38
0,63467	38
0,63533	38
0,63600	38
0,63667	38
0,63733	38
0,63800	39
0,63867	39
0,63933	39
0,64000	39
0,64067	39
0,64133	39
0,64200	39
0,64267	39
0,64333	39
0,64400	39
0,64467	39
0,64533	39
0,64600	40
0,64667	40
0,64733	40
0,64800	40
0,64867	40
0,64933	40
0,65000	40
0,65067	40
0,65133	40
0,65200	40
0,65267	40
0,65333	40
0,65400	40
0,65467	40
0,65533	40
0,65600	40
0,65667	40
0,65733	40
0,65800	40
0,65867	40
0,65933	40
0,66000	40
0,66067	40
0,66133	40
0,66200	40
0,66267	40
0,66333	40
0,66400	40
0,66467	40
0,66533	40
0,66600	40
0,66667	40
0,66733	40
0,66800	40
0,66867	40
0,66933	40
0,67000	40
0,67067	40
0,67133	40
0,67200	40
0,67267	40
0,67333	40
0,67400	40
0,67467	40
0,67533	40
0,67600	40
0,67667	40
0,67733	40
0,67800	40
0,67867	40
0,67933	40
0,68000	40
0,68067	40
0,68133	40
0,68200	39
0,68267	39
0,68333	39
0,68400	39
0,68467	39
0,68533	39
0,68600	39
0,68667	39
0,68733	39
0,68800	39
0,68867	39
0,68933	39
0,69000	39
0,69067	39
0,69133	39
0,69200	38
0,69267	38
0,69333	38
0,69400	38
0,69467	38
0,69533	38
0,69600	38
0,69667	38
0,69733	38
0,69800	38
0,69867	38
0,69933	38
0,70000	38
0,70067	37
0,70133	37
0,70200	37
0,70267	37
0,70333	37
0,70400	37
0,70467	37
0,70533	37
0,70600	37
0,70667	37
0,70733	37
0,70800	37
0,70867	36
0,70933	36
0,71000	36
0,71067	36
0,71133	36
0,71200	36
0,71267	36
0,71333	36
0,71400	36
0,71467	36
0,71533	36
0,71600	35
0,71667	35
0,71733	35
0,71800	35
0,71867	35
0,71933	35
0,72000	35
0,72067	35
0,72133	35
0,72200	35
0,72267	34
0,72333	34
0,72400	34
0,72467	34
0,72533	34
0,72600	34
0,72667	34
0,72733	34
0,72800	34
0,72867	34
0,72933	33
0,73000	33
0,73067	33
0,73133	33
0,73200	33
0,73267	33
0,73333	33
0,73400	33
0,73467	32
0,73533	32
0,73600	32
0,73667	32
0,73733	32
0,73800	32
0,73867	32
0,73933	32
0,74000	31
0,74067	31
0,74133	31
0,74200	31
0,74267	31
0,74333	31
0,74400	31
0,74467	31
0,74533	31
0,74600	30
0,74667	30
0,74733	30
0,74800	30
0,74867	30
0,74933	30
0,75000	30
0,75067	30
0,75133	29
0,75200	29
0,75267	29
0,75333	29
0,75400	29
0,75467	29
0,75533	29
0,75600	29
0,75667	29
0,75733	28
0,75800	28
0,75867	28
0,75933	28
0,76000	28
0,76067	28
0,76133	28
0,76200	28
0,76267	28
0,76333	28
0,76400	28
0,76467	27
0,76533	27
0,76600	27
0,76667	27
0,76733	27
0,76800	27
0,76867	27
0,76933	27
0,77000	27
0,77067	27
0,77133	27
0,77200	27
0,77267	27
0,77333	27
0,77400	27
0,77467	27
0,77533	27
0,77600	27
0,77667	27
0,77733	27
0,77800	27
0,77867	27
0,77933	27
0,78000	27
0,78067	27
0,78133	27
0,78200	27
0,78267	27
0,78333	27
0,78400	27
0,78467	27
0,78533	27
0,78600	27
0,78667	27
0,78733	27
0,78800	27
0,78867	27
0,78933	27
0,79000	28
0,79067	28
0,79133	28
0,79200	28
0,79267	28
0,79333	28
0,79400	29
0,79467	29
0,79533	29
0,79600	29
0,79667	30
0,79733	30
0,79800	30
0,79867	30
0,79933	31
0,80000	31
0,80067	31
0,80133	32
0,80200	32
0,80267	32
0,80333	33
0,80400	33
0,80467	34
0,80533	34
0,80600	35
0,80667	35
0,80733	36
0,80800	36
0,80867	37
0,80933	37
0,81000	38
0,81067	38
0,81133	39
0,81200	40
0,81267	40
0,81333	41
0,81400	42
0,81467	42
0,81533	43
0,81600	44
0,81667	45
0,81733	45
0,81800	46
0,81867	47
0,81933	48
0,82000	49
0,82067	50
0,82133	51
0,82200	51
0,82267	52
0,82333	53
0,82400	54
0,82467	55
0,82533	56
0,82600	58
0,82667	59
0,82733	60
0,82800	61
0,82867	62
0,82933	63
0,83000	64
0,83067	66
0,83133	67
0,83200	68
0,83267	69
0,83333	71
0,83400	72
0,83467	73
0,83533	75
0,83600	76
0,83667	78
0,83733	79
0,83800	81
0,83867	82
0,83933	84
0,84000	85
0,84067	87
0,84133	88
0,84200	90
0,84267	91
0,84333	93
0,84400	95
0,84467	96
0,84533	98
0,84600	100
0,84667	102
0,84733	103
0,84800	105
0,84867	107
0,84933	109
0,85000	111
0,85067	112
0,85133	114
0,85200	116
0,85267	118
0,85333	120
0,85400	122
0,85467	124
0,85533	126
0,85600	128
0,85667	130
0,85733	132
0,85800	134
0,85867	136
0,85933	138
0,86000	140
0,86067	142
0,86133	144
0,86200	146
0,86267	148
0,86333	150
0,86400	152
0,86467	154
0,86533	157
0,86600	159
0,86667	161
0,86733	163
0,86800	165
0,86867	167
0,86933	170
0,87000	172
0,87067	174
0,87133	176
0,87200	178
0,87267	181
0,87333	183
0,87400	185
0,87467	187
0,87533	189
0,87600	192
0,87667	194
0,87733	196
0,87800	198
0,87867	201
0,87933	203
0,88000	205
0,88067	207
0,88133	209
0,88200	212
0,88267	214
0,88333	216
0,88400	218
0,88467	221
0,88533	223
0,88600	225
0,88667	227
0,88733	230
0,88800	232
0,88867	234
0,88933	236
0,89000	238
0,89067	241
0,89133	243
0,89200	245
0,89267	247
0,89333	249
0,89400	252
0,89467	254
0,89533	256
0,89600	258
0,89667	260
0,89733	262
0,89800	264
0,89867	266
0,89933	269
0,90000	271
0,90067	273
0,90133	275
0,90200	277
0,90267	279
0,90333	281
0,90400	283
0,90467	285
0,90533	287
0,90600	289
0,90667	291
0,90733	293
0,90800	295
0,90867	297
0,90933	298
0,91000	300
0,91067	302
0,91133	304
0,91200	306
0,91267	308
0,91333	309
0,91400	311
0,91467	313
0,91533	315
0,91600	317
0,91667	318
0,91733	320
0,91800	322
0,91867	323
0,91933	325
0,92000	327
0,92067	328
0,92133	330
0,92200	331
0,92267	333
0,92333	335
0,92400	336
0,92467	338
0,92533	339
0,92600	341
0,92667	342
0,92733	343
0,92800	345
0,92867	346
0,92933	348
0,93000	349
0,93067	350
0,93133	352
0,93200	353
0,93267	354
0,93333	355
0,93400	357
0,93467	358
0,93533	359
0,93600	360
0,93667	361
0,93733	362
0,93800	363
0,93867	364
0,93933	366
0,94000	367
0,94067	368
0,94133	369
0,94200	370
0,94267	371
0,94333	371
0,94400	372
0,94467	373
0,94533	374
0,94600	375
0,94667	376
0,94733	377
0,94800	377
0,94867	378
0,94933	379
0,95000	380
0,95067	380
0,95133	381
0,95200	382
0,95267	382
0,95333	383
0,95400	384
0,95467	384
0,95533	385
0,95600	385
0,95667	386
0,95733	386
0,95800	387
0,95867	387
0,95933	388
0,96000	388
0,96067	388
0,96133	389
0,96200	389
0,96267	389
0,96333	390
0,96400	390
0,96467	390
0,96533	390
0,96600	391
0,96667	391
0,96733	391
0,96800	391
0,96867	391
0,96933	392
0,97000	392
0,97067	392
0,97133	392
0,97200	392
0,97267	392
0,97333	392
0,97400	392
0,97467	392
0,97533	392
0,97600	392
0,97667	392
0,97733	392
0,97800	392
0,97867	392
0,97933	391
0,98000	391
0,98067	391
0,98133	391
0,98200	391
0,98267	391
0,98333	390
0,98400	390
0,98467	390
0,98533	390
0,98600	389
0,98667	389
0,98733	389
0,98800	388
0,98867	388
0,98933	388
0,99000	387
0,99067	387
0,99133	387
0,99200	386
0,99267	386
0,99333	385
0,99400	385
0,99467	384
0,99533	384
0,99600	383
0,99667	383
0,99733	382
0,99800	382
0,99867	381
0,99933	381
1,00000	380
1,00067	379
1,00133	379
1,00200	378
1,00267	378
1,00333	377
1,00400	376
1,00467	376
1,00533	375
1,00600	374
1,00667	374
1,00733	373
1,00800	372
1,00867	372
1,00933	371
1,01000	370
1,01067	369
1,01133	369
1,01200	368
1,01267	367
1,01333	366
1,01400	365
1,01467	365
1,01533	364
1,01600	363
1,01667	362
1,01733	361
1,01800	360
1,01867	360
1,01933	359
1,02000	358
1,02067	357
1,02133	356
1,02200	355
1,02267	354
1,02333	353
1,02400	352
1,02467	351
1,02533	351
1,02600	350
1,02667	349
1,02733	348
1,02800	347
1,02867	346
1,02933	345
1,03000	344
1,03067	343
1,03133	342
1,03200	341
1,03267	340
1,03333	339
1,03400	338
1,03467	337
1,03533	336
1,03600	335
1,03667	334
1,03733	332
1,03800	331
1,03867	330
1,03933	329
1,04000	328
1,04067	327
1,04133	326
1,04200	325
1,04267	324
1,04333	323
1,04400	322
1,04467	321
1,04533	320
1,04600	318
1,04667	317
1,04733	316
1,04800	315
1,04867	314
1,04933	313
1,05000	312
1,05067	311
1,05133	310
1,05200	308
1,05267	307
1,05333	306
1,05400	305
1,05467	304
1,05533	303
1,05600	302
1,05667	300
1,05733	299
1,05800	298
1,05867	297
1,05933	296
1,06000	295
1,06067	294
1,06133	292
1,06200	291
1,06267	290
1,06333	289
1,06400	288
1,06467	287
1,06533	286
1,06600	284
1,06667	283
1,06733	282
1,06800	281
1,06867	280
1,06933	279
1,07000	277
1,07067	276
1,07133	275
1,07200	274
1,07267	273
1,07333	272
1,07400	271
1,07467	269
1,07533	268
1,07600	267
1,07667	266
1,07733	265
1,07800	264
1,07867	263
1,07933	261
1,08000	260
1,08067	259
1,08133	258
1,08200	257
1,08267	256
1,08333	255
1,08400	253
1,08467	252
1,08533	251
1,08600	250
1,08667	249
1,08733	248
1,08800	247
1,08867	246
1,08933	244
1,09000	243
1,09067	242
1,09133	241
1,09200	240
1,09267	239
1,09333	238
1,09400	237
1,09467	236
1,09533	234
1,09600	233
1,09667	232
1,09733	231
1,09800	230
1,09867	229
1,09933	228
1,10000	227
1,10067	226
1,10133	225
1,10200	224
1,10267	222
1,10333	221
1,10400	220
1,10467	219
1,10533	218
1,10600	217
1,10667	216
1,10733	215
1,10800	214
1,10867	213
1,10933	212
1,11000	211
1,11067	210
1,11133	209
1,11200	208
1,11267	207
1,11333	205
1,11400	204
1,11467	203
1,11533	202
1,11600	201
1,11667	200
1,11733	199
1,11800	198
1,11867	197
1,11933	196
1,12000	195
1,12067	194
1,12133	193
1,12200	192
1,12267	191
1,12333	190
1,12400	189
1,12467	188
1,12533	187
1,12600	186
1,12667	185
1,12733	184
1,12800	183
1,12867	182
1,12933	181
1,13000	181
1,13067	180
1,13133	179
1,13200	178
1,13267	177
1,13333	176
1,13400	175
1,13467	174
1,13533	173
1,13600	172
1,13667	171
1,13733	170
1,13800	169
1,13867	168
1,13933	167
1,14000	166
1,14067	166
1,14133	165
1,14200	164
1,14267	163
1,14333	162
1,14400	161
1,14467	160
1,14533	159
1,14600	158
1,14667	157
1,14733	157
1,14800	156
1,14867	155
1,14933	154
1,15000	153
1,15067	152
1,15133	151
1,15200	151
1,15267	150
1,15333	149
1,15400	148
1,15467	147
1,15533	146
1,15600	145
1,15667	145
1,15733	144
1,15800	143
1,15867	142
1,15933	141
1,16000	141
1,16067	140
1,16133	139
1,16200	138
1,16267	137
1,16333	137
1,16400	136
1,16467	135
1,16533	134
1,16600	134
1,16667	133
1,16733	132
1,16800	131
1,16867	131
1,16933	130
1,17000	129
1,17067	128
1,17133	128
1,17200	127
1,17267	126
1,17333	125
1,17400	125
1,17467	124
1,17533	123
1,17600	123
1,17667	122
1,17733	121
1,17800	120
1,17867	120
1,17933	119
1,18000	118
1,18067	118
1,18133	117
1,18200	116
1,18267	116
1,18333	115
1,18400	114
1,18467	114
1,18533	113
1,18600	112
1,18667	112
1,18733	111
1,18800	110
1,18867	110
1,18933	109
1,19000	108
1,19067	108
1,19133	107
1,19200	106
1,19267	106
1,19333	105
1,19400	105
1,19467	104
1,19533	103
1,19600	103
1,19667	102
1,19733	101
1,19800	101
1,19867	100
1,19933	100
1,20000	99
1,20067	98
1,20133	98
1,20200	97
1,20267	97
1,20333	96
1,20400	96
1,20467	95
1,20533	94
1,20600	94
1,20667	93
1,20733	93
1,20800	92
1,20867	92
1,20933	91
1,21000	91
1,21067	90
1,21133	89
1,21200	89
1,21267	88
1,21333	88
1,21400	87
1,21467	87
1,21533	86
1,21600	86
1,21667	85
1,21733	85
1,21800	84
1,21867	84
1,21933	83
1,22000	83
1,22067	82
1,22133	82
1,22200	81
1,22267	81
1,22333	80
1,22400	80
1,22467	79
1,22533	79
1,22600	78
1,22667	78
1,22733	77
1,22800	77
1,22867	76
1,22933	76
1,23000	76
1,23067	75
1,23133	75
1,23200	74
1,23267	74
1,23333	73
1,23400	73
1,23467	72
1,23533	72
1,23600	71
1,23667	71
1,23733	71
1,23800	70
1,23867	70
1,23933	69
1,24000	69
1,24067	68
1,24133	68
1,24200	68
1,24267	67
1,24333	67
1,24400	66
1,24467	66
1,24533	66
1,24600	65
1,24667	65
1,24733	64
1,24800	64
1,24867	64
1,24933	63
1,25000	63
1,25067	62
1,25133	62
1,25200	62
1,25267	61
1,25333	61
1,25400	60
1,25467	60
1,25533	60
1,25600	59
1,25667	59
1,25733	59
1,25800	58
1,25867	58
1,25933	58
1,26000	57
1,26067	57
1,26133	56
1,26200	56
1,26267	56
1,26333	55
1,26400	55
1,26467	55
1,26533	54
1,26600	54
1,26667	54
1,26733	53
1,26800	53
1,26867	53
1,26933	52
1,27000	52
1,27067	52
1,27133	51
1,27200	51
1,27267	51
1,27333	51
1,27400	50
1,27467	50
1,27533	50
1,27600	49
1,27667	49
1,27733	49
1,27800	48
1,27867	48
1,27933	48
1,28000	47
1,28067	47
1,28133	47
1,28200	47
1,28267	46
1,28333	46
1,28400	46
1,28467	45
1,28533	45
1,28600	45
1,28667	45
1,28733	44
1,28800	44
1,28867	44
1,28933	44
1,29000	43
1,29067	43
1,29133	43
1,29200	42
1,29267	42
1,29333	42
1,29400	42
1,29467	41
1,29533	41
1,29600	41
1,29667	41
1,29733	40
1,29800	40
1,29867	40
1,29933	40
1,30000	39
1,30067	39
1,30133	39
1,30200	39
1,30267	39
1,30333	38
1,30400	38
1,30467	38
1,30533	38
1,30600	37
1,30667	37
1,30733	37
1,30800	37
1,30867	36
1,30933	36
1,31000	36
1,31067	36
1,31133	36
1,31200	35
1,31267	35
1,31333	35
1,31400	35
1,31467	34
1,31533	34
1,31600	34
1,31667	34
1,31733	34
1,31800	33
1,31867	33
1,31933	33
1,32000	33
1,32067	33
1,32133	32
1,32200	32
1,32267	32
1,32333	32
1,32400	32
1,32467	31
1,32533	31
1,32600	31
1,32667	31
1,32733	31
1,32800	30
1,32867	30
1,32933	30
1,33000	30
1,33067	30
1,33133	30
1,33200	29
1,33267	29
1,33333	29
1,33400	29
1,33467	29
1,33533	29
1,33600	28
1,33667	28
1,33733	28
1,33800	28
1,33867	28
1,33933	28
1,34000	27
1,34067	27
1,34133	27
1,34200	27
1,34267	27
1,34333	27
1,34400	26
1,34467	26
1,34533	26
1,34600	26
1,34667	26
1,34733	26
1,34800	25
1,34867	25
1,34933	25
1,35000	25
1,35067	25
1,35133	25
1,35200	25
1,35267	24
1,35333	24
1,35400	24
1,35467	24
1,35533	24
1,35600	24
1,35667	23
1,35733	23
1,35800	23
1,35867	23
1,35933	23
1,36000	23
1,36067	23
1,36133	22
1,36200	22
1,36267	22
1,36333	22
1,36400	22
1,36467	22
1,36533	22
1,36600	22
1,36667	21
1,36733	21
1,36800	21
1,36867	21
1,36933	21
1,37000	21
1,37067	21
1,37133	20
1,37200	20
1,37267	20
1,37333	20
1,37400	20
1,37467	20
1,37533	20
1,37600	20
1,37667	19
1,37733	19
1,37800	19
1,37867	19
1,37933	19
1,38000	19
1,38067	19
1,38133	19
1,38200	18
1,38267	18
1,38333	18
1,38400	18
1,38467	18
1,38533	18
1,38600	18
1,38667	18
1,38733	18
1,38800	17
1,38867	17
1,38933	17
1,39000	17
1,39067	17
1,39133	17
1,39200	17
1,39267	17
1,39333	17
1,39400	16
1,39467	16
1,39533	16
1,39600	16
1,39667	16
1,39733	16
1,39800	16
1,39867	16
1,39933	16
1,40000	16
1,40067	15
1,40133	15
1,40200	15
1,40267	15
1,40333	15
1,40400	15
1,40467	15
1,40533	15
1,40600	15
1,40667	15
1,40733	14
1,40800	14
1,40867	14
1,40933	14
1,41000	14
1,41067	14
1,41133	14
1,41200	14
1,41267	14
1,41333	14
1,41400	14
1,41467	14
1,41533	14
1,41600	13
1,41667	13
1,41733	13
1,41800	13
1,41867	13
1,41933	13
1,42000	13
1,42067	13
1,42133	13
1,42200	13
1,42267	13
1,42333	13
1,42400	13
1,42467	13
1,42533	12
1,42600	12
1,42667	12
1,42733	12
1,42800	12
1,42867	12
1,42933	12
1,43000	12
1,43067	12
1,43133	12
1,43200	12
1,43267	12
1,43333	12
1,43400	12
1,43467	12
1,43533	12
1,43600	12
1,43667	11
1,43733	11
1,43800	11
1,43867	11
1,43933	11
1,44000	11
1,44067	11
1,44133	11
1,44200	11
1,44267	11
1,44333	11
1,44400	11
1,44467	11
1,44533	11
1,44600	11
1,44667	11
1,44733	11
1,44800	11
1,44867	10
1,44933	10
1,45000	10
1,45067	10
1,45133	10
1,45200	10
1,45267	10
1,45333	10
1,45400	10
1,45467	10
1,45533	10
1,45600	10
1,45667	10
1,45733	10
1,45800	10
1,45867	10
1,45933	10
1,46000	10
1,46067	9
1,46133	9
1,46200	9
1,46267	9
1,46333	9
1,46400	9
1,46467	9
1,46533	9
1,46600	9
1,46667	9
1,46733	9
1,46800	9
1,46867	9
1,46933	9
1,47000	9
1,47067	9
1,47133	9
1,47200	9
1,47267	9
1,47333	8
1,47400	8
1,47467	8
1,47533	8
1,47600	8
1,47667	8
1,47733	8
1,47800	8
1,47867	8
1,47933	8
1,48000	8
1,48067	8
1,48133	8
1,48200	8
1,48267	8
1,48333	8
1,48400	8
1,48467	8
1,48533	8
1,48600	8
1,48667	8
1,48733	8
1,48800	8
1,48867	7
1,48933	7
1,49000	7
1,49067	7
1,49133	7
1,49200	7
1,49267	7
1,49333	7
1,49400	7
1,49467	7
1,49533	7
1,49600	7
1,49667	7
1,49733	7
1,49800	7
1,49867	7
1,49933	7
1,50000	7
1,50067	7
1,50133	7
1,50200	7
1,50267	7
1,50333	7
1,50400	7
1,50467	7
1,50533	6
1,50600	6
1,50667	6
1,50733	6
1,50800	6
1,50867	6
1,50933	6
1,51000	6
1,51067	6
1,51133	6
1,51200	6
1,51267	6
1,51333	6
1,51400	6
1,51467	6
1,51533	6
1,51600	6
1,51667	6
1,51733	6
1,51800	6
1,51867	6
1,51933	6
1,52000	6
1,52067	6
1,52133	6
1,52200	6
1,52267	6
1,52333	6
1,52400	6
1,52467	6
1,52533	6
1,52600	6
1,52667	6
1,52733	5
1,52800	5
1,52867	5
1,52933	5
1,53000	5
1,53067	5
1,53133	5
1,53200	5
1,53267	5
1,53333	5
1,53400	5
1,53467	5
1,53533	5
1,53600	5
1,53667	5
1,53733	5
1,53800	5
1,53867	5
1,53933	5
1,54000	5
1,54067	5
1,54133	5
1,54200	5
1,54267	5
1,54333	5
1,54400	5
1,54467	5
1,54533	5
1,54600	5
1,54667	5
1,54733	5
1,54800	5
1,54867	5
1,54933	5
1,55000	5
1,55067	5
1,55133	5
1,55200	5
1,55267	5
1,55333	4
1,55400	4
1,55467	4
1,55533	4
1,55600	4
1,55667	4
1,55733	4
1,55800	4
1,55867	4
1,55933	4
1,56000	4
1,56067	4
1,56133	4
1,56200	4
1,56267	4
1,56333	4
1,56400	4
1,56467	4
1,56533	4
1,56600	4
1,56667	4
1,56733	4
1,56800	4
1,56867	4
1,56933	4
1,57000	4
1,57067	4
1,57133	4
1,57200	4
1,57267	4
1,57333	4
1,57400	4
1,57467	4
1,57533	4
1,57600	4
1,57667	4
1,57733	4
1,57800	4
1,57867	4
1,57933	4
1,58000	4
1,58067	4
1,58133	4
1,58200	4
1,58267	4
1,58333	4
1,58400	4
1,58467	4
1,58533	4
1,58600	4
1,58667	4
1,58733	3
1,58800	3
1,58867	3
1,58933	3
1,59000	3
1,59067	3
1,59133	3
1,59200	3
1,59267	3
1,59333	3
1,59400	3
1,59467	3
1,59533	3
1,59600	3
1,59667	3
1,59733	3
1,59800	3
1,59867	3
1,59933	3
1,60000	3
1,60067	3
1,60133	3
1,60200	3
1,60267	3
1,60333	3
1,60400	3
1,60467	3
1,60533	3
1,60600	3
1,60667	3
1,60733	3
1,60800	3
1,60867	3
1,60933	3
1,61000	3
1,61067	3
1,61133	3
1,61200	3
1,61267	3
1,61333	3
1,61400	3
1,61467	3
1,61533	3
1,61600	3
1,61667	3
1,61733	3
1,61800	3
1,61867	3
1,61933	3
1,62000	3
1,62067	3
1,62133	3
1,62200	3
1,62267	3
1,62333	3
1,62400	3
1,62467	3
1,62533	3
1,62600	3
1,62667	3
1,62733	3
1,62800	3
1,62867	3
1,62933	3
1,63000	3
1,63067	3
1,63133	3
1,63200	3
1,63267	3
1,63333	3
1,63400	3
1,63467	3
1,63533	3
1,63600	3
1,63667	3
1,63733	3
1,63800	2
1,63867	2
1,63933	2
1,64000	2
1,64067	2
1,64133	2
1,64200	2
1,64267	2
1,64333	2
1,64400	2
1,64467	2
1,64533	2
1,64600	2
1,64667	2
1,64733	2
1,64800	2
1,64867	2
1,64933	2
1,65000	2
1,65067	2
1,65133	2
1,65200	2
1,65267	2
1,65333	2
1,65400	2
1,65467	2
1,65533	2
1,65600	2
1,65667	2
1,65733	2
1,65800	2
1,65867	2
1,65933	2
1,66000	2
1,66067	2
1,66133	2
1,66200	2
1,66267	2
1,66333	2
1,66400	2
1,66467	2
1,66533	2
1,66600	2
1,66667	2
1,66733	2
1,66800	2
1,66867	2
1,66933	2
1,67000	2
1,67067	2
1,67133	2
1,67200	2
1,67267	2
1,67333	2
1,67400	2
1,67467	2
1,67533	2
1,67600	2
1,67667	2
1,67733	2
1,67800	2
1,67867	2
1,67933	2
1,68000	2
1,68067	2
1,68133	2
1,68200	2
1,68267	2
1,68333	2
1,68400	2
1,68467	2
1,68533	2
1,68600	2
1,68667	2
1,68733	2
1,68800	2
1,68867	2
1,68933	2
1,69000	2
1,69067	2
1,69133	2
1,69200	2
1,69267	2
1,69333	2
1,69400	2
1,69467	2
1,69533	2
1,69600	2
1,69667	2
1,69733	2
1,69800	2
1,69867	2
1,69933	2
1,70000	2
1,70067	2
1,70133	2
1,70200	2
1,70267	2
1,70333	2
1,70400	2
1,70467	2
1,70533	2
1,70600	2
1,70667	1
1,70733	1
1,70800	1
1,70867	1
1,70933	1
1,71000	1
1,71067	1
1,71133	1
1,71200	1
1,71267	1
1,71333	1
1,71400	1
1,71467	1
1,71533	1
1,71600	1
1,71667	1
1,71733	1
1,71800	1
1,71867	1
1,71933	1
1,72000	1
1,72067	1
1,72133	1
1,72200	1
1,72267	1
1,72333	1
1,72400	1
1,72467	1
1,72533	1
1,72600	1
1,72667	1
1,72733	1
1,72800	1
1,72867	1
1,72933	1
1,73000	1
1,73067	1
1,73133	1
1,73200	1
1,73267	1
1,73333	1
1,73400	1
1,73467	1
1,73533	1
1,73600	1
1,73667	1
1,73733	1
1,73800	1
1,73867	1
1,73933	1
1,74000	1
1,74067	1
1,74133	1
1,74200	1
1,74267	1
1,74333	1
1,74400	1
1,74467	1
1,74533	1
1,74600	1
1,74667	1
1,74733	1
1,74800	1
1,74867	1
1,74933	1
1,75000	1
1,75067	1
1,75133	1
1,75200	1
1,75267	1
1,75333	1
1,75400	1
1,75467	1
1,75533	1
1,75600	1
1,75667	1
1,75733	1
1,75800	1
1,75867	1
1,75933	1
1,76000	1
1,76067	1
1,76133	1
1,76200	1
1,76267	1
1,76333	1
1,76400	1
1,76467	1
1,76533	1
1,76600	1
1,76667	1
1,76733	1
1,76800	1
1,76867	1
1,76933	1
1,77000	1
1,77067	1
1,77133	1
1,77200	1
1,77267	1
1,77333	1
1,77400	1
1,77467	1
1,77533	1
1,77600	1
1,77667	1
1,77733	1
1,77800	1
1,77867	1
1,77933	1
1,78000	1
1,78067	1
1,78133	1
1,78200	1
1,78267	1
1,78333	1
1,78400	1
1,78467	1
1,78533	1
1,78600	1
1,78667	1
1,78733	1
1,78800	1
1,78867	1
1,78933	1
1,79000	1
1,79067	1
1,79133	1
1,79200	1
1,79267	1
1,79333	1
1,79400	1
1,79467	1
1,79533	1
1,79600	1
1,79667	1
1,79733	1
1,79800	1
1,79867	1
1,79933	1
1,80000	1
1,80067	1
1,80133	1
1,80200	1
1,80267	1
1,80333	1
1,80400	1
1,80467	1
1,80533	1
1,80600	1
1,80667	1
1,80733	1
1,80800	1
1,80867	1
1,80933	1
1,81000	1
1,81067	1
1,81133	1
1,81200	1
1,81267	1
1,81333	1
1,81400	1
1,81467	1
1,81533	1
1,81600	1
1,81667	1
1,81733	1
1,81800	1
1,81867	1
1,81933	1
1,82000	1
1,82067	1
1,82133	1
1,82200	1
1,82267	1
1,82333	1
1,82400	1
1,82467	1
1,82533	1
1,82600	1
1,82667	1
1,82733	1
1,82800	1
1,82867	1
1,82933	1
1,83000	1
1,83067	1
1,83133	1
1,83200	1
1,83267	1
1,83333	1
1,83400	1
1,83467	1
1,83533	1
1,83600	1
1,83667	1
1,83733	1
1,83800	1
1,83867	1
1,83933	1
1,84000	1
1,84067	1
1,84133	1
1,84200	1
1,84267	1
1,84333	1
1,84400	1
1,84467	1
1,84533	1
1,84600	1
1,84667	1
1,84733	1
1,84800	1
1,84867	1
1,84933	1
1,85000	1
1,85067	1
1,85133	1
1,85200	1
1,85267	1
1,85333	1
1,85400	1
1,85467	1
1,85533	1
1,85600	1
1,85667	1
1,85733	1
1,85800	1
1,85867	1
1,85933	1
1,86000	1
1,86067	1
1,86133	1
1,86200	1
1,86267	1
1,86333	1
1,86400	1
1,86467	1
1,86533	1
1,86600	1
1,86667	1
1,86733	1
1,86800	1
1,86867	1
1,86933	1
1,87000	1
1,87067	1
1,87133	1
1,87200	1
1,87267	1
1,87333	1
1,87400	1
1,87467	1
1,87533	1
1,87600	1
1,87667	1
1,87733	1
1,87800	1
1,87867	1
1,87933	1
1,88000	1
1,88067	1
1,88133	1
1,88200	1
1,88267	1
1,88333	1
1,88400	1
1,88467	1
1,88533	1
1,88600	1
1,88667	1
1,88733	0
1,88800	0
1,88867	0
1,88933	0
1,89000	0
1,89067	0
1,89133	0
1,89200	0
1,89267	0
1,89333	0
1,89400	0
1,89467	0
1,89533	0
1,89600	0
1,89667	0
1,89733	0
1,89800	0
1,89867	0
1,89933	0
1,90000	0
1,90067	0
1,90133	0
1,90200	0
1,90267	0
1,90333	0
1,90400	0
1,90467	0
1,90533	0
1,90600	0
1,90667	0
1,90733	0
1,90800	0
1,90867	0
1,90933	0
1,91000	0
1,91067	0
1,91133	0
1,91200	0
1,91267	0
1,91333	0
1,91400	0
1,91467	0
1,91533	0
1,91600	0
1,91667	0
1,91733	0
1,91800	0
1,91867	0
1,91933	0
1,92000	0
1,92067	0
1,92133	0
1,92200	0
1,92267	0
1,92333	0
1,92400	0
1,92467	0
1,92533	0
1,92600	0
1,92667	0
1,92733	0
1,92800	0
1,92867	0
1,92933	0
1,93000	0
1,93067	0
1,93133	0
1,93200	0
1,93267	0
1,93333	0
1,93400	0
1,93467	0
1,93533	0
1,93600	0
1,93667	0
1,93733	0
1,93800	0
1,93867	0
1,93933	0
1,94000	0
1,94067	0
1,94133	0
1,94200	0
1,94267	0
1,94333	0
1,94400	0
1,94467	0
1,94533	0
1,94600	0
1,94667	0
1,94733	0
1,94800	0
1,94867	0
1,94933	0
1,95000	0
1,95067	0
1,95133	0
1,95200	0
1,95267	0
1,95333	0
1,95400	0
1,95467	0
1,95533	0
1,95600	0
1,95667	0
1,95733	0
1,95800	0
1,95867	0
1,95933	0
1,96000	0
1,96067	0
1,96133	0
1,96200	0
1,96267	0
1,96333	0
1,96400	0
1,96467	0
1,96533	0
1,96600	0
1,96667	0
1,96733	0
1,96800	0
1,96867	0
1,96933	0
1,97000	0
1,97067	0
1,97133	0
1,97200	0
1,97267	0
1,97333	0
1,97400	0
1,97467	0
1,97533	0
1,97600	0
1,97667	0
1,97733	0
1,97800	0
1,97867	0
1,97933	0
1,98000	0
1,98067	0
1,98133	0
1,98200	0
1,98267	0
1,98333	0
1,98400	0
1,98467	0
1,98533	0
1,98600	0
1,98667	0
1,98733	0
1,98800	0
1,98867	0
1,98933	0
1,99000	0
1,99067	0
1,99133	0
1,99200	0
1,99267	0
1,99333	0
1,99400	0
1,99467	0
1,99533	0
1,99600	0
1,99667	0
1,99733	0
1,99800	0
1,99867	0
1,99933	0
2,00000	0
2,00067	0
2,00133	0
2,00200	0
2,00267	0
2,00333	0
2,00400	0
2,00467	0
2,00533	0
2,00600	0
2,00667	0
2,00733	0
2,00800	0
2,00867	0
2,00933	0
2,01000	0
2,01067	0
2,01133	0
2,01200	0
2,01267	0
2,01333	0
2,01400	0
2,01467	0
2,01533	0
2,01600	0
2,01667	0
2,01733	0
2,01800	0
2,01867	0
2,01933	0
2,02000	0
2,02067	0
2,02133	0
2,02200	0
2,02267	0
2,02333	0
2,02400	0
2,02467	0
2,02533	0
2,02600	0
2,02667	0
2,02733	0
2,02800	0
2,02867	0
2,02933	0
2,03000	0
2,03067	0
2,03133	0
2,03200	0
2,03267	0
2,03333	0
2,03400	0
2,03467	0
2,03533	0
2,03600	0
2,03667	0
2,03733	0
2,03800	0
2,03867	0
2,03933	0
2,04000	0
2,04067	0
2,04133	0
2,04200	0
2,04267	0
2,04333	0
2,04400	0
2,04467	0
2,04533	0
2,04600	0
2,04667	0
2,04733	0
2,04800	0
2,04867	0
2,04933	0
2,05000	0
2,05067	0
2,05133	0
2,05200	0
2,05267	0
2,05333	0
2,05400	0
2,05467	0
2,05533	0
2,05600	0
2,05667	0
2,05733	0
2,05800	0
2,05867	0
2,05933	0
2,06000	0
2,06067	0
2,06133	0
2,06200	0
2,06267	0
2,06333	0
2,06400	0
2,06467	0
2,06533	0
2,06600	0
2,06667	0
2,06733	0
2,06800	0
2,06867	0
2,06933	0
2,07000	0
2,07067	0
2,07133	0
2,07200	0
2,07267	0
2,07333	0
2,07400	0
2,07467	0
2,07533	0
2,07600	0
2,07667	0
2,07733	0
2,07800	0
2,07867	0
2,07933	0
2,08000	0
2,08067	0
2,08133	0

[Chromatogram Additional (Ch1)]
Maximum	392
Minimum	-1

