[Header]
Data File Name	D:\Praktikum\WS2020-2021\02122020\ethanol_110°.gcd
Output Date	02.12.2020
Output Time	16:40:47

[File Information]
Type	Data File
Generated	02.12.2020 14:26:57
Generated by	GCMS
Modified	02.12.2020 14:26:57
Modified by	GCMS

[Sample Information]
Operator Name	GCMS
Acquisition Date	02.12.2020 14:24:57
Type	Unknown
Level	1
Sample Name	ethanol_110°
Sample ID	ethanol_110°
ISTD Amount1	1
ISTD Amount2	1
ISTD Amount3	1
ISTD Amount4	1
ISTD Amount5	1
ISTD Amount6	1
ISTD Amount7	1
ISTD Amount8	1
ISTD Amount9	1
ISTD Amount10	1
ISTD Amount11	1
ISTD Amount12	1
ISTD Amount13	1
ISTD Amount14	1
ISTD Amount15	1
ISTD Amount16	1
Sample Amount	1
Dilution Factor	1
Vial#	1
Injection Volume	0
Injection Count	0
Bar Code	

[Original Files]
Data File	D:\Praktikum\WS2020-2021\02122020\ethanol_110°.gcd
Method File	D:\Praktikum\Alkohole GC-2014.gcm
Batch File	
Report Format File	D:\Praktikum\Praktikum.gcr

[File Comment]


[Configration]
Instrument Name	GC-2014
Instrument #	1
Line #	1

[Peak Table (Ch1)]
# of Peaks	2
Peak#	R.Time	I.Time	F.Time	Area	Height	A/H	Conc.	Mark	ID#	Name	k'	Plate #	Plate Ht.	Tailing	Resolution	Sep.Factor
1	0,652	0,457	0,835	2399	201	11,95	0,00000	   			0,000	57,422	0,000	0,000	0,000	0,000
2	1,023	0,835	1,923	89693	6251	14,35	0,00000	 V 	2	Dreck	0,568	127,246	0,000	1,775	1,051	0,000

[Compound Results (Ch1)]
# of IDs	4
ID#	Name	R.Time	Area	Height	Conc.	Curve	3rd	2nd	1st	Constant
1	Luft	0,000	0	0	0,00000	Default					
2	Dreck	1,023	89693	6251	0,00000	Default					
3	Propanol	0,000	0	0	0,00000	Default					
4	Butanol	0,000	0	0	0,00000	Default					

[Group Results (Ch1)]
# of Groups	0

[Chromatogram (Ch1)]
Interval(msec)	40
# of Points	2917
Start Time(min)	0,000
End Time(min)	1,945
R.Time	Intensity
0,00000	-2
0,00067	-2
0,00133	-2
0,00200	-2
0,00267	-2
0,00333	-2
0,00400	-2
0,00467	-2
0,00533	-2
0,00600	-2
0,00667	-2
0,00733	-2
0,00800	-2
0,00867	-2
0,00933	-2
0,01000	-2
0,01067	-2
0,01133	-2
0,01200	-2
0,01267	-2
0,01333	-2
0,01400	-2
0,01467	-2
0,01533	-2
0,01600	-2
0,01667	-2
0,01733	-2
0,01800	-2
0,01867	-2
0,01933	-2
0,02000	-2
0,02067	-2
0,02133	-2
0,02200	-2
0,02267	-2
0,02333	-2
0,02400	-2
0,02467	-2
0,02533	-2
0,02600	-2
0,02667	-2
0,02733	-2
0,02800	-2
0,02867	-2
0,02933	-2
0,03000	-2
0,03067	-2
0,03133	-2
0,03200	-2
0,03267	-2
0,03333	-2
0,03400	-2
0,03467	-2
0,03533	-2
0,03600	-2
0,03667	-2
0,03733	-2
0,03800	-2
0,03867	-2
0,03933	-2
0,04000	-2
0,04067	-2
0,04133	-2
0,04200	-2
0,04267	-2
0,04333	-2
0,04400	-2
0,04467	-2
0,04533	-2
0,04600	-2
0,04667	-2
0,04733	-2
0,04800	-2
0,04867	-2
0,04933	-2
0,05000	-2
0,05067	-2
0,05133	-2
0,05200	-2
0,05267	-2
0,05333	-2
0,05400	-2
0,05467	-2
0,05533	-2
0,05600	-2
0,05667	-2
0,05733	-2
0,05800	-2
0,05867	-2
0,05933	-2
0,06000	-2
0,06067	-2
0,06133	-2
0,06200	-2
0,06267	-2
0,06333	-2
0,06400	-2
0,06467	-2
0,06533	-2
0,06600	-2
0,06667	-2
0,06733	-2
0,06800	-2
0,06867	-2
0,06933	-2
0,07000	-2
0,07067	-2
0,07133	-2
0,07200	-2
0,07267	-2
0,07333	-2
0,07400	-2
0,07467	-2
0,07533	-2
0,07600	-2
0,07667	-2
0,07733	-2
0,07800	-2
0,07867	-2
0,07933	-2
0,08000	-2
0,08067	-2
0,08133	-2
0,08200	-2
0,08267	-2
0,08333	-2
0,08400	-2
0,08467	-2
0,08533	-2
0,08600	-2
0,08667	-2
0,08733	-2
0,08800	-2
0,08867	-2
0,08933	-2
0,09000	-2
0,09067	-2
0,09133	-2
0,09200	-2
0,09267	-2
0,09333	-2
0,09400	-2
0,09467	-2
0,09533	-2
0,09600	-2
0,09667	-2
0,09733	-2
0,09800	-2
0,09867	-2
0,09933	-2
0,10000	-2
0,10067	-2
0,10133	-2
0,10200	-2
0,10267	-2
0,10333	-2
0,10400	-2
0,10467	-2
0,10533	-2
0,10600	-2
0,10667	-2
0,10733	-2
0,10800	-2
0,10867	-2
0,10933	-2
0,11000	-2
0,11067	-2
0,11133	-2
0,11200	-2
0,11267	-2
0,11333	-2
0,11400	-2
0,11467	-2
0,11533	-2
0,11600	-2
0,11667	-2
0,11733	-2
0,11800	-2
0,11867	-2
0,11933	-2
0,12000	-2
0,12067	-2
0,12133	-2
0,12200	-2
0,12267	-2
0,12333	-2
0,12400	-2
0,12467	-2
0,12533	-2
0,12600	-2
0,12667	-2
0,12733	-2
0,12800	-2
0,12867	-2
0,12933	-2
0,13000	-2
0,13067	-2
0,13133	-2
0,13200	-2
0,13267	-2
0,13333	-2
0,13400	-2
0,13467	-2
0,13533	-2
0,13600	-2
0,13667	-2
0,13733	-2
0,13800	-2
0,13867	-2
0,13933	-2
0,14000	-2
0,14067	-2
0,14133	-2
0,14200	-2
0,14267	-2
0,14333	-2
0,14400	-2
0,14467	-2
0,14533	-2
0,14600	-2
0,14667	-2
0,14733	-2
0,14800	-2
0,14867	-2
0,14933	-2
0,15000	-2
0,15067	-2
0,15133	-2
0,15200	-2
0,15267	-2
0,15333	-2
0,15400	-2
0,15467	-2
0,15533	-2
0,15600	-2
0,15667	-2
0,15733	-2
0,15800	-2
0,15867	-2
0,15933	-2
0,16000	-2
0,16067	-2
0,16133	-2
0,16200	-2
0,16267	-2
0,16333	-2
0,16400	-2
0,16467	-2
0,16533	-2
0,16600	-2
0,16667	-2
0,16733	-2
0,16800	-2
0,16867	-2
0,16933	-2
0,17000	-2
0,17067	-2
0,17133	-2
0,17200	-2
0,17267	-2
0,17333	-2
0,17400	-2
0,17467	-2
0,17533	-2
0,17600	-2
0,17667	-2
0,17733	-2
0,17800	-2
0,17867	-2
0,17933	-2
0,18000	-2
0,18067	-2
0,18133	-2
0,18200	-2
0,18267	-2
0,18333	-2
0,18400	-2
0,18467	-2
0,18533	-2
0,18600	-2
0,18667	-2
0,18733	-2
0,18800	-2
0,18867	-2
0,18933	-2
0,19000	-2
0,19067	-2
0,19133	-2
0,19200	-2
0,19267	-2
0,19333	-2
0,19400	-2
0,19467	-2
0,19533	-2
0,19600	-2
0,19667	-2
0,19733	-2
0,19800	-2
0,19867	-2
0,19933	-2
0,20000	-2
0,20067	-2
0,20133	-2
0,20200	-2
0,20267	-2
0,20333	-2
0,20400	-2
0,20467	-2
0,20533	-2
0,20600	-2
0,20667	-2
0,20733	-2
0,20800	-2
0,20867	-2
0,20933	-2
0,21000	-2
0,21067	-2
0,21133	-2
0,21200	-2
0,21267	-2
0,21333	-2
0,21400	-2
0,21467	-2
0,21533	-2
0,21600	-2
0,21667	-2
0,21733	-2
0,21800	-2
0,21867	-2
0,21933	-2
0,22000	-2
0,22067	-2
0,22133	-2
0,22200	-2
0,22267	-2
0,22333	-2
0,22400	-2
0,22467	-2
0,22533	-2
0,22600	-2
0,22667	-2
0,22733	-2
0,22800	-2
0,22867	-2
0,22933	-2
0,23000	-2
0,23067	-2
0,23133	-2
0,23200	-2
0,23267	-2
0,23333	-2
0,23400	-2
0,23467	-2
0,23533	-2
0,23600	-2
0,23667	-2
0,23733	-2
0,23800	-2
0,23867	-2
0,23933	-2
0,24000	-2
0,24067	-2
0,24133	-2
0,24200	-2
0,24267	-2
0,24333	-2
0,24400	-2
0,24467	-2
0,24533	-2
0,24600	-2
0,24667	-2
0,24733	-2
0,24800	-2
0,24867	-2
0,24933	-2
0,25000	-2
0,25067	-2
0,25133	-2
0,25200	-2
0,25267	-2
0,25333	-2
0,25400	-2
0,25467	-2
0,25533	-2
0,25600	-2
0,25667	-2
0,25733	-2
0,25800	-2
0,25867	-2
0,25933	-2
0,26000	-2
0,26067	-2
0,26133	-2
0,26200	-2
0,26267	-2
0,26333	-2
0,26400	-2
0,26467	-2
0,26533	-2
0,26600	-2
0,26667	-2
0,26733	-2
0,26800	-1
0,26867	-1
0,26933	-1
0,27000	-1
0,27067	-1
0,27133	-1
0,27200	-1
0,27267	-1
0,27333	-1
0,27400	-1
0,27467	-1
0,27533	-1
0,27600	-1
0,27667	-1
0,27733	-1
0,27800	-1
0,27867	-1
0,27933	-1
0,28000	-1
0,28067	-1
0,28133	-1
0,28200	-1
0,28267	-1
0,28333	-1
0,28400	-1
0,28467	-1
0,28533	-1
0,28600	-1
0,28667	-1
0,28733	-1
0,28800	-1
0,28867	-1
0,28933	-1
0,29000	-1
0,29067	-1
0,29133	-1
0,29200	-1
0,29267	-1
0,29333	-1
0,29400	-1
0,29467	-1
0,29533	-1
0,29600	-1
0,29667	-1
0,29733	-1
0,29800	-2
0,29867	-2
0,29933	-2
0,30000	-2
0,30067	-2
0,30133	-2
0,30200	-2
0,30267	-2
0,30333	-2
0,30400	-2
0,30467	-2
0,30533	-2
0,30600	-2
0,30667	-2
0,30733	-2
0,30800	-2
0,30867	-2
0,30933	-2
0,31000	-2
0,31067	-2
0,31133	-2
0,31200	-2
0,31267	-2
0,31333	-2
0,31400	-2
0,31467	-2
0,31533	-2
0,31600	-2
0,31667	-2
0,31733	-2
0,31800	-2
0,31867	-2
0,31933	-2
0,32000	-2
0,32067	-2
0,32133	-2
0,32200	-2
0,32267	-2
0,32333	-2
0,32400	-2
0,32467	-2
0,32533	-2
0,32600	-2
0,32667	-2
0,32733	-2
0,32800	-2
0,32867	-1
0,32933	-1
0,33000	-1
0,33067	-1
0,33133	-1
0,33200	-1
0,33267	-1
0,33333	-1
0,33400	-1
0,33467	-1
0,33533	-1
0,33600	-1
0,33667	-1
0,33733	-1
0,33800	-1
0,33867	-1
0,33933	-1
0,34000	-1
0,34067	-1
0,34133	-1
0,34200	-1
0,34267	-1
0,34333	-1
0,34400	-2
0,34467	-2
0,34533	-2
0,34600	-2
0,34667	-2
0,34733	-2
0,34800	-2
0,34867	-2
0,34933	-2
0,35000	-2
0,35067	-2
0,35133	-2
0,35200	-2
0,35267	-2
0,35333	-2
0,35400	-2
0,35467	-2
0,35533	-2
0,35600	-2
0,35667	-2
0,35733	-2
0,35800	-2
0,35867	-2
0,35933	-2
0,36000	-2
0,36067	-2
0,36133	-2
0,36200	-2
0,36267	-2
0,36333	-2
0,36400	-2
0,36467	-2
0,36533	-2
0,36600	-2
0,36667	-2
0,36733	-2
0,36800	-2
0,36867	-2
0,36933	-2
0,37000	-2
0,37067	-2
0,37133	-2
0,37200	-2
0,37267	-2
0,37333	-2
0,37400	-2
0,37467	-2
0,37533	-2
0,37600	-2
0,37667	-2
0,37733	-2
0,37800	-2
0,37867	-2
0,37933	-2
0,38000	-2
0,38067	-2
0,38133	-2
0,38200	-2
0,38267	-2
0,38333	-2
0,38400	-2
0,38467	-2
0,38533	-2
0,38600	-2
0,38667	-2
0,38733	-2
0,38800	-2
0,38867	-2
0,38933	-2
0,39000	-2
0,39067	-1
0,39133	-1
0,39200	-1
0,39267	-1
0,39333	-1
0,39400	-1
0,39467	-1
0,39533	-1
0,39600	-1
0,39667	-1
0,39733	-1
0,39800	-1
0,39867	-1
0,39933	-1
0,40000	-1
0,40067	-1
0,40133	-1
0,40200	-1
0,40267	-1
0,40333	-1
0,40400	-1
0,40467	-1
0,40533	-1
0,40600	-1
0,40667	-1
0,40733	-1
0,40800	-1
0,40867	-1
0,40933	-1
0,41000	-1
0,41067	-1
0,41133	-1
0,41200	-1
0,41267	-1
0,41333	-1
0,41400	-1
0,41467	-1
0,41533	-1
0,41600	-1
0,41667	-1
0,41733	-1
0,41800	-1
0,41867	-1
0,41933	-1
0,42000	-1
0,42067	-1
0,42133	-1
0,42200	-1
0,42267	-1
0,42333	-1
0,42400	-1
0,42467	-1
0,42533	-1
0,42600	-1
0,42667	-1
0,42733	-1
0,42800	-1
0,42867	-1
0,42933	-1
0,43000	-1
0,43067	-1
0,43133	-1
0,43200	-1
0,43267	-1
0,43333	-1
0,43400	-1
0,43467	-1
0,43533	-1
0,43600	-1
0,43667	-1
0,43733	-1
0,43800	-1
0,43867	-1
0,43933	-1
0,44000	-1
0,44067	-1
0,44133	-1
0,44200	-1
0,44267	-1
0,44333	-1
0,44400	-1
0,44467	-1
0,44533	-1
0,44600	-1
0,44667	-1
0,44733	-1
0,44800	-1
0,44867	-1
0,44933	-1
0,45000	-1
0,45067	-1
0,45133	-1
0,45200	-1
0,45267	-1
0,45333	-1
0,45400	-1
0,45467	-1
0,45533	-1
0,45600	-1
0,45667	-1
0,45733	-1
0,45800	-1
0,45867	-1
0,45933	-1
0,46000	-1
0,46067	-1
0,46133	-1
0,46200	-1
0,46267	-1
0,46333	-1
0,46400	-1
0,46467	-1
0,46533	-1
0,46600	-1
0,46667	-1
0,46733	-1
0,46800	-1
0,46867	-1
0,46933	-1
0,47000	-1
0,47067	-1
0,47133	-1
0,47200	-1
0,47267	-1
0,47333	-1
0,47400	-1
0,47467	-1
0,47533	-1
0,47600	-1
0,47667	-1
0,47733	-1
0,47800	-1
0,47867	-1
0,47933	-1
0,48000	-1
0,48067	-1
0,48133	-1
0,48200	-1
0,48267	-1
0,48333	-1
0,48400	-1
0,48467	-1
0,48533	-0
0,48600	-0
0,48667	-0
0,48733	-0
0,48800	-0
0,48867	-0
0,48933	-0
0,49000	-0
0,49067	0
0,49133	0
0,49200	0
0,49267	0
0,49333	0
0,49400	0
0,49467	0
0,49533	0
0,49600	1
0,49667	1
0,49733	1
0,49800	1
0,49867	1
0,49933	1
0,50000	1
0,50067	1
0,50133	2
0,50200	2
0,50267	2
0,50333	2
0,50400	2
0,50467	3
0,50533	3
0,50600	3
0,50667	3
0,50733	3
0,50800	4
0,50867	4
0,50933	4
0,51000	5
0,51067	5
0,51133	5
0,51200	6
0,51267	6
0,51333	6
0,51400	7
0,51467	7
0,51533	7
0,51600	8
0,51667	8
0,51733	9
0,51800	9
0,51867	10
0,51933	10
0,52000	11
0,52067	11
0,52133	12
0,52200	12
0,52267	13
0,52333	13
0,52400	14
0,52467	14
0,52533	15
0,52600	16
0,52667	16
0,52733	17
0,52800	18
0,52867	18
0,52933	19
0,53000	20
0,53067	21
0,53133	21
0,53200	22
0,53267	23
0,53333	24
0,53400	25
0,53467	25
0,53533	26
0,53600	27
0,53667	28
0,53733	29
0,53800	30
0,53867	31
0,53933	32
0,54000	33
0,54067	34
0,54133	35
0,54200	36
0,54267	37
0,54333	38
0,54400	39
0,54467	40
0,54533	41
0,54600	43
0,54667	44
0,54733	45
0,54800	46
0,54867	47
0,54933	48
0,55000	50
0,55067	51
0,55133	52
0,55200	53
0,55267	55
0,55333	56
0,55400	57
0,55467	59
0,55533	60
0,55600	61
0,55667	63
0,55733	64
0,55800	65
0,55867	67
0,55933	68
0,56000	69
0,56067	71
0,56133	72
0,56200	73
0,56267	75
0,56333	76
0,56400	78
0,56467	79
0,56533	81
0,56600	82
0,56667	83
0,56733	85
0,56800	86
0,56867	88
0,56933	89
0,57000	91
0,57067	92
0,57133	94
0,57200	95
0,57267	97
0,57333	98
0,57400	100
0,57467	101
0,57533	102
0,57600	104
0,57667	105
0,57733	107
0,57800	108
0,57867	110
0,57933	111
0,58000	113
0,58067	114
0,58133	116
0,58200	117
0,58267	119
0,58333	120
0,58400	121
0,58467	123
0,58533	124
0,58600	126
0,58667	127
0,58733	129
0,58800	130
0,58867	131
0,58933	133
0,59000	134
0,59067	135
0,59133	137
0,59200	138
0,59267	139
0,59333	141
0,59400	142
0,59467	143
0,59533	145
0,59600	146
0,59667	147
0,59733	149
0,59800	150
0,59867	151
0,59933	152
0,60000	154
0,60067	155
0,60133	156
0,60200	157
0,60267	158
0,60333	159
0,60400	161
0,60467	162
0,60533	163
0,60600	164
0,60667	165
0,60733	166
0,60800	167
0,60867	168
0,60933	169
0,61000	170
0,61067	171
0,61133	172
0,61200	173
0,61267	174
0,61333	175
0,61400	176
0,61467	177
0,61533	178
0,61600	179
0,61667	179
0,61733	180
0,61800	181
0,61867	182
0,61933	183
0,62000	183
0,62067	184
0,62133	185
0,62200	186
0,62267	186
0,62333	187
0,62400	188
0,62467	188
0,62533	189
0,62600	190
0,62667	190
0,62733	191
0,62800	191
0,62867	192
0,62933	193
0,63000	193
0,63067	194
0,63133	194
0,63200	195
0,63267	195
0,63333	195
0,63400	196
0,63467	196
0,63533	197
0,63600	197
0,63667	197
0,63733	198
0,63800	198
0,63867	198
0,63933	199
0,64000	199
0,64067	199
0,64133	200
0,64200	200
0,64267	200
0,64333	200
0,64400	200
0,64467	201
0,64533	201
0,64600	201
0,64667	201
0,64733	201
0,64800	201
0,64867	201
0,64933	201
0,65000	201
0,65067	201
0,65133	201
0,65200	201
0,65267	201
0,65333	201
0,65400	201
0,65467	201
0,65533	201
0,65600	201
0,65667	201
0,65733	201
0,65800	201
0,65867	201
0,65933	201
0,66000	201
0,66067	200
0,66133	200
0,66200	200
0,66267	200
0,66333	200
0,66400	199
0,66467	199
0,66533	199
0,66600	199
0,66667	198
0,66733	198
0,66800	198
0,66867	198
0,66933	197
0,67000	197
0,67067	197
0,67133	196
0,67200	196
0,67267	196
0,67333	195
0,67400	195
0,67467	194
0,67533	194
0,67600	194
0,67667	193
0,67733	193
0,67800	192
0,67867	192
0,67933	192
0,68000	191
0,68067	191
0,68133	190
0,68200	190
0,68267	189
0,68333	189
0,68400	188
0,68467	188
0,68533	187
0,68600	187
0,68667	186
0,68733	186
0,68800	185
0,68867	185
0,68933	184
0,69000	184
0,69067	183
0,69133	183
0,69200	182
0,69267	181
0,69333	181
0,69400	180
0,69467	180
0,69533	179
0,69600	179
0,69667	178
0,69733	177
0,69800	177
0,69867	176
0,69933	176
0,70000	175
0,70067	174
0,70133	174
0,70200	173
0,70267	173
0,70333	172
0,70400	171
0,70467	171
0,70533	170
0,70600	169
0,70667	169
0,70733	168
0,70800	167
0,70867	167
0,70933	166
0,71000	165
0,71067	165
0,71133	164
0,71200	164
0,71267	163
0,71333	162
0,71400	162
0,71467	161
0,71533	160
0,71600	160
0,71667	159
0,71733	158
0,71800	158
0,71867	157
0,71933	156
0,72000	156
0,72067	155
0,72133	154
0,72200	154
0,72267	153
0,72333	152
0,72400	152
0,72467	151
0,72533	150
0,72600	149
0,72667	149
0,72733	148
0,72800	147
0,72867	147
0,72933	146
0,73000	145
0,73067	145
0,73133	144
0,73200	143
0,73267	143
0,73333	142
0,73400	141
0,73467	141
0,73533	140
0,73600	139
0,73667	139
0,73733	138
0,73800	137
0,73867	137
0,73933	136
0,74000	136
0,74067	135
0,74133	134
0,74200	134
0,74267	133
0,74333	132
0,74400	132
0,74467	131
0,74533	130
0,74600	130
0,74667	129
0,74733	128
0,74800	128
0,74867	127
0,74933	127
0,75000	126
0,75067	125
0,75133	125
0,75200	124
0,75267	123
0,75333	123
0,75400	122
0,75467	122
0,75533	121
0,75600	120
0,75667	120
0,75733	119
0,75800	119
0,75867	118
0,75933	117
0,76000	117
0,76067	116
0,76133	116
0,76200	115
0,76267	114
0,76333	114
0,76400	113
0,76467	113
0,76533	112
0,76600	111
0,76667	111
0,76733	110
0,76800	110
0,76867	109
0,76933	109
0,77000	108
0,77067	107
0,77133	107
0,77200	106
0,77267	106
0,77333	105
0,77400	105
0,77467	104
0,77533	104
0,77600	103
0,77667	102
0,77733	102
0,77800	101
0,77867	101
0,77933	100
0,78000	100
0,78067	99
0,78133	99
0,78200	98
0,78267	98
0,78333	97
0,78400	97
0,78467	96
0,78533	96
0,78600	95
0,78667	94
0,78733	94
0,78800	93
0,78867	93
0,78933	92
0,79000	92
0,79067	91
0,79133	91
0,79200	90
0,79267	90
0,79333	89
0,79400	89
0,79467	88
0,79533	88
0,79600	87
0,79667	87
0,79733	86
0,79800	86
0,79867	85
0,79933	85
0,80000	85
0,80067	84
0,80133	84
0,80200	83
0,80267	83
0,80333	82
0,80400	82
0,80467	81
0,80533	81
0,80600	80
0,80667	80
0,80733	80
0,80800	79
0,80867	79
0,80933	78
0,81000	78
0,81067	77
0,81133	77
0,81200	77
0,81267	76
0,81333	76
0,81400	75
0,81467	75
0,81533	75
0,81600	74
0,81667	74
0,81733	73
0,81800	73
0,81867	73
0,81933	72
0,82000	72
0,82067	72
0,82133	71
0,82200	71
0,82267	71
0,82333	70
0,82400	70
0,82467	70
0,82533	70
0,82600	69
0,82667	69
0,82733	69
0,82800	69
0,82867	68
0,82933	68
0,83000	68
0,83067	68
0,83133	68
0,83200	68
0,83267	68
0,83333	68
0,83400	68
0,83467	68
0,83533	68
0,83600	68
0,83667	68
0,83733	68
0,83800	68
0,83867	69
0,83933	69
0,84000	69
0,84067	70
0,84133	70
0,84200	71
0,84267	71
0,84333	72
0,84400	73
0,84467	73
0,84533	74
0,84600	75
0,84667	76
0,84733	77
0,84800	78
0,84867	80
0,84933	81
0,85000	82
0,85067	84
0,85133	86
0,85200	87
0,85267	89
0,85333	91
0,85400	93
0,85467	96
0,85533	98
0,85600	100
0,85667	103
0,85733	106
0,85800	109
0,85867	112
0,85933	115
0,86000	119
0,86067	123
0,86133	126
0,86200	130
0,86267	135
0,86333	139
0,86400	144
0,86467	149
0,86533	154
0,86600	159
0,86667	164
0,86733	170
0,86800	176
0,86867	182
0,86933	189
0,87000	196
0,87067	203
0,87133	210
0,87200	218
0,87267	226
0,87333	234
0,87400	242
0,87467	251
0,87533	260
0,87600	270
0,87667	279
0,87733	289
0,87800	300
0,87867	311
0,87933	322
0,88000	333
0,88067	345
0,88133	357
0,88200	370
0,88267	383
0,88333	396
0,88400	410
0,88467	424
0,88533	439
0,88600	454
0,88667	469
0,88733	485
0,88800	501
0,88867	518
0,88933	535
0,89000	553
0,89067	571
0,89133	589
0,89200	608
0,89267	627
0,89333	647
0,89400	667
0,89467	688
0,89533	709
0,89600	731
0,89667	753
0,89733	775
0,89800	798
0,89867	822
0,89933	846
0,90000	870
0,90067	895
0,90133	920
0,90200	946
0,90267	973
0,90333	999
0,90400	1027
0,90467	1054
0,90533	1083
0,90600	1111
0,90667	1141
0,90733	1170
0,90800	1200
0,90867	1231
0,90933	1262
0,91000	1293
0,91067	1325
0,91133	1357
0,91200	1390
0,91267	1423
0,91333	1457
0,91400	1491
0,91467	1525
0,91533	1560
0,91600	1595
0,91667	1631
0,91733	1667
0,91800	1703
0,91867	1740
0,91933	1777
0,92000	1815
0,92067	1852
0,92133	1891
0,92200	1929
0,92267	1968
0,92333	2007
0,92400	2047
0,92467	2086
0,92533	2126
0,92600	2167
0,92667	2207
0,92733	2248
0,92800	2289
0,92867	2331
0,92933	2372
0,93000	2414
0,93067	2456
0,93133	2498
0,93200	2540
0,93267	2583
0,93333	2626
0,93400	2669
0,93467	2712
0,93533	2755
0,93600	2798
0,93667	2841
0,93733	2885
0,93800	2928
0,93867	2972
0,93933	3015
0,94000	3059
0,94067	3103
0,94133	3147
0,94200	3190
0,94267	3234
0,94333	3278
0,94400	3322
0,94467	3365
0,94533	3409
0,94600	3453
0,94667	3496
0,94733	3540
0,94800	3583
0,94867	3626
0,94933	3669
0,95000	3712
0,95067	3755
0,95133	3798
0,95200	3841
0,95267	3883
0,95333	3925
0,95400	3967
0,95467	4009
0,95533	4051
0,95600	4092
0,95667	4133
0,95733	4174
0,95800	4215
0,95867	4256
0,95933	4296
0,96000	4336
0,96067	4376
0,96133	4415
0,96200	4454
0,96267	4493
0,96333	4531
0,96400	4570
0,96467	4608
0,96533	4645
0,96600	4682
0,96667	4719
0,96733	4756
0,96800	4792
0,96867	4828
0,96933	4863
0,97000	4898
0,97067	4933
0,97133	4967
0,97200	5001
0,97267	5034
0,97333	5067
0,97400	5100
0,97467	5132
0,97533	5164
0,97600	5195
0,97667	5226
0,97733	5257
0,97800	5287
0,97867	5316
0,97933	5346
0,98000	5374
0,98067	5403
0,98133	5430
0,98200	5458
0,98267	5485
0,98333	5511
0,98400	5537
0,98467	5563
0,98533	5588
0,98600	5613
0,98667	5637
0,98733	5660
0,98800	5684
0,98867	5706
0,98933	5729
0,99000	5750
0,99067	5772
0,99133	5793
0,99200	5813
0,99267	5833
0,99333	5852
0,99400	5871
0,99467	5890
0,99533	5908
0,99600	5925
0,99667	5942
0,99733	5959
0,99800	5975
0,99867	5991
0,99933	6006
1,00000	6021
1,00067	6035
1,00133	6049
1,00200	6062
1,00267	6075
1,00333	6087
1,00400	6099
1,00467	6111
1,00533	6122
1,00600	6132
1,00667	6142
1,00733	6152
1,00800	6161
1,00867	6170
1,00933	6178
1,01000	6186
1,01067	6194
1,01133	6201
1,01200	6207
1,01267	6214
1,01333	6219
1,01400	6225
1,01467	6230
1,01533	6234
1,01600	6238
1,01667	6242
1,01733	6245
1,01800	6248
1,01867	6251
1,01933	6253
1,02000	6255
1,02067	6256
1,02133	6257
1,02200	6258
1,02267	6258
1,02333	6258
1,02400	6257
1,02467	6256
1,02533	6255
1,02600	6253
1,02667	6251
1,02733	6249
1,02800	6246
1,02867	6243
1,02933	6240
1,03000	6236
1,03067	6232
1,03133	6228
1,03200	6223
1,03267	6218
1,03333	6213
1,03400	6207
1,03467	6201
1,03533	6195
1,03600	6189
1,03667	6182
1,03733	6175
1,03800	6167
1,03867	6160
1,03933	6152
1,04000	6143
1,04067	6135
1,04133	6126
1,04200	6117
1,04267	6108
1,04333	6098
1,04400	6088
1,04467	6078
1,04533	6068
1,04600	6057
1,04667	6046
1,04733	6035
1,04800	6024
1,04867	6013
1,04933	6001
1,05000	5989
1,05067	5977
1,05133	5964
1,05200	5952
1,05267	5939
1,05333	5926
1,05400	5913
1,05467	5899
1,05533	5886
1,05600	5872
1,05667	5858
1,05733	5844
1,05800	5830
1,05867	5815
1,05933	5801
1,06000	5786
1,06067	5771
1,06133	5756
1,06200	5740
1,06267	5725
1,06333	5709
1,06400	5693
1,06467	5677
1,06533	5661
1,06600	5645
1,06667	5629
1,06733	5612
1,06800	5596
1,06867	5579
1,06933	5562
1,07000	5545
1,07067	5528
1,07133	5511
1,07200	5493
1,07267	5476
1,07333	5458
1,07400	5441
1,07467	5423
1,07533	5405
1,07600	5387
1,07667	5369
1,07733	5351
1,07800	5332
1,07867	5314
1,07933	5296
1,08000	5277
1,08067	5258
1,08133	5240
1,08200	5221
1,08267	5202
1,08333	5183
1,08400	5164
1,08467	5145
1,08533	5126
1,08600	5107
1,08667	5088
1,08733	5069
1,08800	5049
1,08867	5030
1,08933	5011
1,09000	4991
1,09067	4972
1,09133	4952
1,09200	4933
1,09267	4913
1,09333	4893
1,09400	4874
1,09467	4854
1,09533	4834
1,09600	4815
1,09667	4795
1,09733	4775
1,09800	4755
1,09867	4735
1,09933	4715
1,10000	4695
1,10067	4676
1,10133	4656
1,10200	4636
1,10267	4616
1,10333	4596
1,10400	4576
1,10467	4556
1,10533	4536
1,10600	4516
1,10667	4496
1,10733	4476
1,10800	4456
1,10867	4436
1,10933	4416
1,11000	4396
1,11067	4376
1,11133	4356
1,11200	4336
1,11267	4316
1,11333	4296
1,11400	4276
1,11467	4256
1,11533	4236
1,11600	4217
1,11667	4197
1,11733	4177
1,11800	4157
1,11867	4137
1,11933	4117
1,12000	4098
1,12067	4078
1,12133	4058
1,12200	4039
1,12267	4019
1,12333	3999
1,12400	3980
1,12467	3960
1,12533	3941
1,12600	3921
1,12667	3902
1,12733	3882
1,12800	3863
1,12867	3844
1,12933	3824
1,13000	3805
1,13067	3786
1,13133	3767
1,13200	3748
1,13267	3728
1,13333	3709
1,13400	3690
1,13467	3671
1,13533	3652
1,13600	3634
1,13667	3615
1,13733	3596
1,13800	3577
1,13867	3559
1,13933	3540
1,14000	3521
1,14067	3503
1,14133	3484
1,14200	3466
1,14267	3447
1,14333	3429
1,14400	3411
1,14467	3393
1,14533	3374
1,14600	3356
1,14667	3338
1,14733	3320
1,14800	3302
1,14867	3284
1,14933	3266
1,15000	3249
1,15067	3231
1,15133	3213
1,15200	3196
1,15267	3178
1,15333	3161
1,15400	3143
1,15467	3126
1,15533	3108
1,15600	3091
1,15667	3074
1,15733	3057
1,15800	3040
1,15867	3023
1,15933	3006
1,16000	2989
1,16067	2972
1,16133	2955
1,16200	2939
1,16267	2922
1,16333	2905
1,16400	2889
1,16467	2872
1,16533	2856
1,16600	2840
1,16667	2824
1,16733	2807
1,16800	2791
1,16867	2775
1,16933	2759
1,17000	2743
1,17067	2727
1,17133	2712
1,17200	2696
1,17267	2680
1,17333	2665
1,17400	2649
1,17467	2634
1,17533	2618
1,17600	2603
1,17667	2588
1,17733	2573
1,17800	2557
1,17867	2542
1,17933	2527
1,18000	2513
1,18067	2498
1,18133	2483
1,18200	2468
1,18267	2454
1,18333	2439
1,18400	2424
1,18467	2410
1,18533	2396
1,18600	2381
1,18667	2367
1,18733	2353
1,18800	2339
1,18867	2325
1,18933	2311
1,19000	2297
1,19067	2283
1,19133	2269
1,19200	2255
1,19267	2242
1,19333	2228
1,19400	2215
1,19467	2201
1,19533	2188
1,19600	2175
1,19667	2161
1,19733	2148
1,19800	2135
1,19867	2122
1,19933	2109
1,20000	2096
1,20067	2083
1,20133	2070
1,20200	2058
1,20267	2045
1,20333	2032
1,20400	2020
1,20467	2007
1,20533	1995
1,20600	1983
1,20667	1970
1,20733	1958
1,20800	1946
1,20867	1934
1,20933	1922
1,21000	1910
1,21067	1898
1,21133	1886
1,21200	1874
1,21267	1863
1,21333	1851
1,21400	1839
1,21467	1828
1,21533	1817
1,21600	1805
1,21667	1794
1,21733	1783
1,21800	1771
1,21867	1760
1,21933	1749
1,22000	1738
1,22067	1727
1,22133	1716
1,22200	1705
1,22267	1695
1,22333	1684
1,22400	1673
1,22467	1663
1,22533	1652
1,22600	1642
1,22667	1631
1,22733	1621
1,22800	1610
1,22867	1600
1,22933	1590
1,23000	1580
1,23067	1570
1,23133	1560
1,23200	1550
1,23267	1540
1,23333	1530
1,23400	1520
1,23467	1511
1,23533	1501
1,23600	1491
1,23667	1482
1,23733	1472
1,23800	1463
1,23867	1453
1,23933	1444
1,24000	1435
1,24067	1426
1,24133	1416
1,24200	1407
1,24267	1398
1,24333	1389
1,24400	1380
1,24467	1371
1,24533	1362
1,24600	1354
1,24667	1345
1,24733	1336
1,24800	1327
1,24867	1319
1,24933	1310
1,25000	1302
1,25067	1293
1,25133	1285
1,25200	1277
1,25267	1268
1,25333	1260
1,25400	1252
1,25467	1244
1,25533	1236
1,25600	1227
1,25667	1219
1,25733	1212
1,25800	1204
1,25867	1196
1,25933	1188
1,26000	1180
1,26067	1172
1,26133	1165
1,26200	1157
1,26267	1150
1,26333	1142
1,26400	1135
1,26467	1127
1,26533	1120
1,26600	1112
1,26667	1105
1,26733	1098
1,26800	1091
1,26867	1084
1,26933	1076
1,27000	1069
1,27067	1062
1,27133	1055
1,27200	1048
1,27267	1042
1,27333	1035
1,27400	1028
1,27467	1021
1,27533	1014
1,27600	1008
1,27667	1001
1,27733	994
1,27800	988
1,27867	981
1,27933	975
1,28000	968
1,28067	962
1,28133	956
1,28200	949
1,28267	943
1,28333	937
1,28400	931
1,28467	925
1,28533	918
1,28600	912
1,28667	906
1,28733	900
1,28800	894
1,28867	888
1,28933	882
1,29000	877
1,29067	871
1,29133	865
1,29200	859
1,29267	854
1,29333	848
1,29400	842
1,29467	837
1,29533	831
1,29600	826
1,29667	820
1,29733	815
1,29800	809
1,29867	804
1,29933	798
1,30000	793
1,30067	788
1,30133	783
1,30200	777
1,30267	772
1,30333	767
1,30400	762
1,30467	757
1,30533	752
1,30600	747
1,30667	742
1,30733	737
1,30800	732
1,30867	727
1,30933	722
1,31000	717
1,31067	713
1,31133	708
1,31200	703
1,31267	698
1,31333	694
1,31400	689
1,31467	684
1,31533	680
1,31600	675
1,31667	671
1,31733	666
1,31800	662
1,31867	657
1,31933	653
1,32000	649
1,32067	644
1,32133	640
1,32200	636
1,32267	631
1,32333	627
1,32400	623
1,32467	619
1,32533	615
1,32600	610
1,32667	606
1,32733	602
1,32800	598
1,32867	594
1,32933	590
1,33000	586
1,33067	582
1,33133	578
1,33200	575
1,33267	571
1,33333	567
1,33400	563
1,33467	559
1,33533	555
1,33600	552
1,33667	548
1,33733	544
1,33800	541
1,33867	537
1,33933	533
1,34000	530
1,34067	526
1,34133	523
1,34200	519
1,34267	516
1,34333	512
1,34400	509
1,34467	505
1,34533	502
1,34600	499
1,34667	495
1,34733	492
1,34800	489
1,34867	485
1,34933	482
1,35000	479
1,35067	475
1,35133	472
1,35200	469
1,35267	466
1,35333	463
1,35400	460
1,35467	457
1,35533	453
1,35600	450
1,35667	447
1,35733	444
1,35800	441
1,35867	438
1,35933	435
1,36000	432
1,36067	429
1,36133	427
1,36200	424
1,36267	421
1,36333	418
1,36400	415
1,36467	412
1,36533	410
1,36600	407
1,36667	404
1,36733	401
1,36800	399
1,36867	396
1,36933	393
1,37000	391
1,37067	388
1,37133	385
1,37200	383
1,37267	380
1,37333	378
1,37400	375
1,37467	372
1,37533	370
1,37600	367
1,37667	365
1,37733	362
1,37800	360
1,37867	358
1,37933	355
1,38000	353
1,38067	350
1,38133	348
1,38200	346
1,38267	343
1,38333	341
1,38400	339
1,38467	336
1,38533	334
1,38600	332
1,38667	329
1,38733	327
1,38800	325
1,38867	323
1,38933	321
1,39000	318
1,39067	316
1,39133	314
1,39200	312
1,39267	310
1,39333	308
1,39400	306
1,39467	304
1,39533	302
1,39600	299
1,39667	297
1,39733	295
1,39800	293
1,39867	291
1,39933	289
1,40000	287
1,40067	286
1,40133	284
1,40200	282
1,40267	280
1,40333	278
1,40400	276
1,40467	274
1,40533	272
1,40600	270
1,40667	269
1,40733	267
1,40800	265
1,40867	263
1,40933	261
1,41000	260
1,41067	258
1,41133	256
1,41200	254
1,41267	253
1,41333	251
1,41400	249
1,41467	248
1,41533	246
1,41600	244
1,41667	243
1,41733	241
1,41800	239
1,41867	238
1,41933	236
1,42000	234
1,42067	233
1,42133	231
1,42200	230
1,42267	228
1,42333	227
1,42400	225
1,42467	224
1,42533	222
1,42600	221
1,42667	219
1,42733	218
1,42800	216
1,42867	215
1,42933	213
1,43000	212
1,43067	210
1,43133	209
1,43200	208
1,43267	206
1,43333	205
1,43400	203
1,43467	202
1,43533	201
1,43600	199
1,43667	198
1,43733	197
1,43800	195
1,43867	194
1,43933	193
1,44000	192
1,44067	190
1,44133	189
1,44200	188
1,44267	186
1,44333	185
1,44400	184
1,44467	183
1,44533	182
1,44600	180
1,44667	179
1,44733	178
1,44800	177
1,44867	176
1,44933	174
1,45000	173
1,45067	172
1,45133	171
1,45200	170
1,45267	169
1,45333	168
1,45400	166
1,45467	165
1,45533	164
1,45600	163
1,45667	162
1,45733	161
1,45800	160
1,45867	159
1,45933	158
1,46000	157
1,46067	156
1,46133	155
1,46200	154
1,46267	153
1,46333	152
1,46400	151
1,46467	150
1,46533	149
1,46600	148
1,46667	147
1,46733	146
1,46800	145
1,46867	144
1,46933	143
1,47000	142
1,47067	141
1,47133	140
1,47200	139
1,47267	138
1,47333	137
1,47400	136
1,47467	136
1,47533	135
1,47600	134
1,47667	133
1,47733	132
1,47800	131
1,47867	130
1,47933	129
1,48000	129
1,48067	128
1,48133	127
1,48200	126
1,48267	125
1,48333	124
1,48400	124
1,48467	123
1,48533	122
1,48600	121
1,48667	120
1,48733	120
1,48800	119
1,48867	118
1,48933	117
1,49000	116
1,49067	116
1,49133	115
1,49200	114
1,49267	113
1,49333	113
1,49400	112
1,49467	111
1,49533	110
1,49600	110
1,49667	109
1,49733	108
1,49800	108
1,49867	107
1,49933	106
1,50000	106
1,50067	105
1,50133	104
1,50200	104
1,50267	103
1,50333	102
1,50400	102
1,50467	101
1,50533	100
1,50600	100
1,50667	99
1,50733	98
1,50800	98
1,50867	97
1,50933	97
1,51000	96
1,51067	95
1,51133	95
1,51200	94
1,51267	94
1,51333	93
1,51400	92
1,51467	92
1,51533	91
1,51600	91
1,51667	90
1,51733	89
1,51800	89
1,51867	88
1,51933	88
1,52000	87
1,52067	87
1,52133	86
1,52200	85
1,52267	85
1,52333	84
1,52400	84
1,52467	83
1,52533	83
1,52600	82
1,52667	82
1,52733	81
1,52800	81
1,52867	80
1,52933	80
1,53000	79
1,53067	79
1,53133	78
1,53200	78
1,53267	77
1,53333	77
1,53400	76
1,53467	76
1,53533	75
1,53600	75
1,53667	75
1,53733	74
1,53800	74
1,53867	73
1,53933	73
1,54000	72
1,54067	72
1,54133	71
1,54200	71
1,54267	71
1,54333	70
1,54400	70
1,54467	69
1,54533	69
1,54600	68
1,54667	68
1,54733	68
1,54800	67
1,54867	67
1,54933	66
1,55000	66
1,55067	66
1,55133	65
1,55200	65
1,55267	64
1,55333	64
1,55400	64
1,55467	63
1,55533	63
1,55600	62
1,55667	62
1,55733	62
1,55800	61
1,55867	61
1,55933	61
1,56000	60
1,56067	60
1,56133	59
1,56200	59
1,56267	59
1,56333	58
1,56400	58
1,56467	58
1,56533	57
1,56600	57
1,56667	57
1,56733	56
1,56800	56
1,56867	56
1,56933	55
1,57000	55
1,57067	55
1,57133	54
1,57200	54
1,57267	54
1,57333	53
1,57400	53
1,57467	53
1,57533	52
1,57600	52
1,57667	52
1,57733	51
1,57800	51
1,57867	51
1,57933	50
1,58000	50
1,58067	50
1,58133	50
1,58200	49
1,58267	49
1,58333	49
1,58400	48
1,58467	48
1,58533	48
1,58600	48
1,58667	47
1,58733	47
1,58800	47
1,58867	46
1,58933	46
1,59000	46
1,59067	46
1,59133	45
1,59200	45
1,59267	45
1,59333	45
1,59400	44
1,59467	44
1,59533	44
1,59600	44
1,59667	43
1,59733	43
1,59800	43
1,59867	43
1,59933	42
1,60000	42
1,60067	42
1,60133	42
1,60200	41
1,60267	41
1,60333	41
1,60400	41
1,60467	40
1,60533	40
1,60600	40
1,60667	40
1,60733	40
1,60800	39
1,60867	39
1,60933	39
1,61000	39
1,61067	39
1,61133	38
1,61200	38
1,61267	38
1,61333	38
1,61400	37
1,61467	37
1,61533	37
1,61600	37
1,61667	37
1,61733	36
1,61800	36
1,61867	36
1,61933	36
1,62000	36
1,62067	35
1,62133	35
1,62200	35
1,62267	35
1,62333	35
1,62400	34
1,62467	34
1,62533	34
1,62600	34
1,62667	34
1,62733	34
1,62800	33
1,62867	33
1,62933	33
1,63000	33
1,63067	33
1,63133	33
1,63200	32
1,63267	32
1,63333	32
1,63400	32
1,63467	32
1,63533	32
1,63600	31
1,63667	31
1,63733	31
1,63800	31
1,63867	31
1,63933	31
1,64000	31
1,64067	30
1,64133	30
1,64200	30
1,64267	30
1,64333	30
1,64400	30
1,64467	29
1,64533	29
1,64600	29
1,64667	29
1,64733	29
1,64800	29
1,64867	29
1,64933	28
1,65000	28
1,65067	28
1,65133	28
1,65200	28
1,65267	28
1,65333	28
1,65400	27
1,65467	27
1,65533	27
1,65600	27
1,65667	27
1,65733	27
1,65800	27
1,65867	26
1,65933	26
1,66000	26
1,66067	26
1,66133	26
1,66200	26
1,66267	26
1,66333	26
1,66400	25
1,66467	25
1,66533	25
1,66600	25
1,66667	25
1,66733	25
1,66800	25
1,66867	25
1,66933	25
1,67000	24
1,67067	24
1,67133	24
1,67200	24
1,67267	24
1,67333	24
1,67400	24
1,67467	24
1,67533	24
1,67600	24
1,67667	23
1,67733	23
1,67800	23
1,67867	23
1,67933	23
1,68000	23
1,68067	23
1,68133	23
1,68200	23
1,68267	23
1,68333	23
1,68400	22
1,68467	22
1,68533	22
1,68600	22
1,68667	22
1,68733	22
1,68800	22
1,68867	22
1,68933	22
1,69000	22
1,69067	22
1,69133	22
1,69200	22
1,69267	21
1,69333	21
1,69400	21
1,69467	21
1,69533	21
1,69600	21
1,69667	21
1,69733	21
1,69800	21
1,69867	21
1,69933	21
1,70000	21
1,70067	21
1,70133	21
1,70200	21
1,70267	21
1,70333	20
1,70400	20
1,70467	20
1,70533	20
1,70600	20
1,70667	20
1,70733	20
1,70800	20
1,70867	20
1,70933	20
1,71000	20
1,71067	20
1,71133	20
1,71200	20
1,71267	20
1,71333	20
1,71400	20
1,71467	20
1,71533	20
1,71600	20
1,71667	19
1,71733	19
1,71800	19
1,71867	19
1,71933	19
1,72000	19
1,72067	19
1,72133	19
1,72200	19
1,72267	19
1,72333	19
1,72400	19
1,72467	19
1,72533	19
1,72600	19
1,72667	19
1,72733	19
1,72800	19
1,72867	19
1,72933	19
1,73000	19
1,73067	19
1,73133	19
1,73200	18
1,73267	18
1,73333	18
1,73400	18
1,73467	18
1,73533	18
1,73600	18
1,73667	18
1,73733	18
1,73800	18
1,73867	18
1,73933	18
1,74000	18
1,74067	18
1,74133	18
1,74200	18
1,74267	18
1,74333	18
1,74400	18
1,74467	18
1,74533	18
1,74600	18
1,74667	18
1,74733	18
1,74800	18
1,74867	18
1,74933	18
1,75000	18
1,75067	18
1,75133	18
1,75200	18
1,75267	18
1,75333	18
1,75400	18
1,75467	18
1,75533	18
1,75600	18
1,75667	18
1,75733	18
1,75800	18
1,75867	17
1,75933	17
1,76000	17
1,76067	17
1,76133	17
1,76200	17
1,76267	17
1,76333	17
1,76400	17
1,76467	17
1,76533	17
1,76600	17
1,76667	17
1,76733	17
1,76800	17
1,76867	17
1,76933	17
1,77000	17
1,77067	17
1,77133	17
1,77200	17
1,77267	17
1,77333	17
1,77400	17
1,77467	17
1,77533	17
1,77600	17
1,77667	17
1,77733	17
1,77800	17
1,77867	17
1,77933	17
1,78000	17
1,78067	17
1,78133	17
1,78200	17
1,78267	17
1,78333	17
1,78400	17
1,78467	17
1,78533	17
1,78600	17
1,78667	17
1,78733	17
1,78800	16
1,78867	16
1,78933	16
1,79000	16
1,79067	16
1,79133	16
1,79200	16
1,79267	16
1,79333	16
1,79400	16
1,79467	16
1,79533	16
1,79600	16
1,79667	16
1,79733	16
1,79800	16
1,79867	16
1,79933	16
1,80000	16
1,80067	16
1,80133	16
1,80200	16
1,80267	16
1,80333	16
1,80400	16
1,80467	16
1,80533	16
1,80600	16
1,80667	16
1,80733	16
1,80800	16
1,80867	16
1,80933	16
1,81000	16
1,81067	16
1,81133	16
1,81200	16
1,81267	16
1,81333	16
1,81400	16
1,81467	16
1,81533	16
1,81600	16
1,81667	16
1,81733	16
1,81800	16
1,81867	16
1,81933	16
1,82000	16
1,82067	16
1,82133	16
1,82200	16
1,82267	16
1,82333	16
1,82400	16
1,82467	16
1,82533	16
1,82600	16
1,82667	16
1,82733	16
1,82800	16
1,82867	16
1,82933	16
1,83000	16
1,83067	16
1,83133	16
1,83200	16
1,83267	16
1,83333	16
1,83400	16
1,83467	16
1,83533	16
1,83600	16
1,83667	16
1,83733	16
1,83800	16
1,83867	16
1,83933	16
1,84000	16
1,84067	16
1,84133	16
1,84200	16
1,84267	15
1,84333	15
1,84400	15
1,84467	15
1,84533	15
1,84600	15
1,84667	15
1,84733	15
1,84800	15
1,84867	15
1,84933	15
1,85000	15
1,85067	15
1,85133	15
1,85200	15
1,85267	15
1,85333	15
1,85400	15
1,85467	15
1,85533	15
1,85600	15
1,85667	15
1,85733	15
1,85800	15
1,85867	15
1,85933	15
1,86000	15
1,86067	15
1,86133	15
1,86200	15
1,86267	15
1,86333	15
1,86400	15
1,86467	15
1,86533	15
1,86600	15
1,86667	15
1,86733	15
1,86800	15
1,86867	15
1,86933	14
1,87000	14
1,87067	14
1,87133	14
1,87200	14
1,87267	14
1,87333	14
1,87400	14
1,87467	14
1,87533	14
1,87600	14
1,87667	14
1,87733	14
1,87800	14
1,87867	14
1,87933	14
1,88000	14
1,88067	14
1,88133	14
1,88200	14
1,88267	14
1,88333	14
1,88400	14
1,88467	14
1,88533	14
1,88600	14
1,88667	14
1,88733	14
1,88800	14
1,88867	14
1,88933	14
1,89000	14
1,89067	14
1,89133	14
1,89200	14
1,89267	14
1,89333	13
1,89400	13
1,89467	13
1,89533	13
1,89600	13
1,89667	13
1,89733	13
1,89800	13
1,89867	13
1,89933	13
1,90000	13
1,90067	13
1,90133	13
1,90200	13
1,90267	13
1,90333	13
1,90400	13
1,90467	13
1,90533	13
1,90600	13
1,90667	13
1,90733	13
1,90800	13
1,90867	13
1,90933	13
1,91000	13
1,91067	13
1,91133	13
1,91200	13
1,91267	13
1,91333	13
1,91400	13
1,91467	13
1,91533	13
1,91600	13
1,91667	13
1,91733	13
1,91800	13
1,91867	13
1,91933	13
1,92000	13
1,92067	13
1,92133	13
1,92200	12
1,92267	12
1,92333	12
1,92400	12
1,92467	12
1,92533	12
1,92600	12
1,92667	12
1,92733	12
1,92800	12
1,92867	12
1,92933	12
1,93000	12
1,93067	12
1,93133	12
1,93200	12
1,93267	12
1,93333	12
1,93400	12
1,93467	12
1,93533	12
1,93600	12
1,93667	12
1,93733	12
1,93800	12
1,93867	12
1,93933	12
1,94000	12
1,94067	12
1,94133	11
1,94200	11
1,94267	11
1,94333	11
1,94400	11

[Chromatogram Additional (Ch1)]
Maximum	6258
Minimum	-2

